DTS Sentinel unit serial number:	SN413079Multiplexer serial number:	ORYXHardware model number:	OX4-SRSoftware version number:	ORYX F/W v4.00 Oryx Data Collector v3.7.2.0data status	okinstallation	princeton_trtdifferential loss correction	single-endedforward channel	channel 3reverse channel	N/Adate	2019/10/01time	00:00:34forward acquisition time	60.00reverse acquisition time	0.00gamma	496.2192k internal	0.2338k external	0.2338temperature offset calibration	0.9885default loss term (dB/km)	0.3790temperature slope calibration	1.0000multiplexer offset coefficient	1.0000multiplexer slope coefficient	1.0000fibre end	0.00T internal ref (°C)	27.12T ext. ref 1 (°C)	4.07T ext. ref 2 (°C)	21.06length (m)	temperature (°C)	Stokes	anti-Stokes-747.200	-200.000	-0.004	-0.108
-746.185	39.933	-0.132	-0.119
-745.171	397.866	-0.186	0.390
-744.156	-155.341	-0.191	0.012
-743.142	-200.000	-0.006	-0.177
-742.127	0.584	0.155	-0.111
-741.112	649.857	0.111	-0.285
-740.098	-154.323	-0.108	-0.007
-739.083	168.909	-0.027	-0.039
-738.069	-200.000	0.010	0.104
-737.054	800.000	0.094	0.271
-736.039	100.030	-0.324	0.377
-735.025	-200.000	0.040	0.362
-734.010	-24.543	-0.132	0.079
-732.996	-192.828	0.131	0.001
-731.981	-52.585	-0.131	0.060
-730.966	34.101	-0.016	-0.014
-729.952	388.768	-0.192	0.398
-728.937	16.330	-0.253	0.200
-727.923	-200.000	0.001	0.179
-726.908	-15.737	-0.247	0.158
-725.894	800.000	-0.082	-0.251
-724.879	-200.000	0.034	-0.169
-723.864	-62.267	-0.197	0.082
-722.850	290.709	-0.165	0.301
-721.835	75.631	0.181	0.191
-720.821	800.000	0.097	-0.385
-719.806	694.819	-0.123	-0.323
-718.791	-118.926	-0.516	0.091
-717.777	438.068	-0.164	-0.358
-716.762	-30.217	-0.198	-0.113
-715.748	-88.360	-0.215	0.064
-714.733	-99.009	0.187	-0.047
-713.718	800.000	0.060	0.230
-712.704	-200.000	0.007	-0.124
-711.689	-63.822	-0.088	0.036
-710.675	16.888	-0.168	-0.133
-709.660	-200.000	-0.049	-0.263
-708.645	362.410	-0.061	-0.123
-707.631	-45.665	0.281	0.139
-706.616	291.420	-0.067	-0.123
-705.602	127.303	0.078	-0.100
-704.587	664.661	-0.038	-0.098
-703.572	345.442	0.031	-0.061
-702.558	41.621	0.203	0.184
-701.543	735.807	-0.113	0.303
-700.529	250.379	0.050	0.086
-699.514	-57.832	0.173	0.076
-698.499	282.620	0.207	0.373
-697.485	661.357	-0.061	0.157
-696.470	202.470	0.238	-0.367
-695.456	800.000	0.118	0.338
-694.441	-69.483	0.235	0.090
-693.426	-200.000	0.075	-0.487
-692.412	-200.000	0.010	0.062
-691.397	-92.228	-0.347	0.098
-690.383	-145.612	0.285	0.026
-689.368	129.406	0.083	0.107
-688.354	187.883	-0.069	0.103
-687.339	-119.198	-0.085	-0.015
-686.324	34.655	0.127	0.111
-685.310	800.000	0.015	0.062
-684.295	92.161	-0.068	-0.077
-683.281	-103.535	0.345	0.081
-682.266	-200.000	-0.035	0.282
-681.251	-200.000	-0.036	-0.351
-680.237	-151.688	-0.263	-0.019
-679.222	-56.321	-0.350	-0.155
-678.208	-200.000	0.021	0.380
-677.193	800.000	0.107	-0.441
-676.178	-66.139	-0.078	-0.031
-675.164	-37.044	0.219	0.117
-674.149	-82.115	-0.118	-0.039
-673.135	-200.000	0.015	0.152
-672.120	17.411	0.172	-0.137
-671.105	-200.000	0.007	0.105
-670.091	-200.000	0.005	0.175
-669.076	-163.944	0.126	0.006
-668.062	5.755	-0.047	-0.035
-667.047	-105.725	-0.233	0.053
-666.032	7.505	0.166	-0.124
-665.018	-146.754	-0.196	-0.017
-664.003	589.042	-0.078	-0.193
-662.989	-27.486	0.301	-0.175
-661.974	3.941	0.262	-0.192
-660.959	34.294	0.193	-0.168
-659.945	469.979	-0.042	-0.095
-658.930	-19.624	0.361	-0.224
-657.916	-32.030	-0.174	0.097
-656.901	800.000	-0.086	0.240
-655.886	800.000	0.093	-0.338
-654.872	-170.884	-0.324	0.011
-653.857	800.000	0.083	-0.309
-652.843	170.744	0.062	0.089
-651.828	800.000	0.028	0.088
-650.814	624.026	0.101	-0.256
-649.799	231.215	-0.070	-0.115
-648.784	108.488	-0.085	0.101
-647.770	-14.659	0.259	0.166
-646.755	-63.683	-0.097	-0.040
-645.741	-77.515	-0.463	-0.160
-644.726	-200.000	0.028	-0.142
-643.711	-93.619	-0.162	0.045
-642.697	-18.365	0.047	0.029
-641.682	-55.476	-0.241	0.108
-640.668	15.582	0.151	-0.119
-639.653	-88.727	0.301	-0.089
-638.638	3.593	0.244	-0.178
-637.624	-38.019	0.097	-0.051
-636.609	800.000	0.059	-0.225
-635.595	-159.022	0.199	-0.011
-634.580	-200.000	0.023	0.119
-633.565	-72.306	0.392	-0.145
-632.551	-47.930	-0.347	-0.168
-631.536	-200.000	-0.024	-0.183
-630.522	-138.142	0.206	0.023
-629.507	-89.059	0.312	-0.092
-628.492	-200.000	0.036	-0.343
-627.478	-2.735	0.182	0.127
-626.463	358.477	-0.011	0.021
-625.449	-3.235	-0.103	-0.072
-624.434	693.018	-0.071	-0.186
-623.419	-200.000	-0.035	-0.237
-622.405	89.152	-0.114	-0.127
-621.390	55.574	-0.207	0.201
-620.376	209.385	-0.156	0.245
-619.361	507.993	0.055	-0.127
-618.346	-154.638	0.399	0.027
-617.332	-126.508	-0.270	-0.040
-616.317	-151.590	-0.124	0.009
-615.303	57.883	-0.188	0.184
-614.288	-157.420	0.166	-0.010
-613.273	-50.128	-0.065	0.031
-612.259	226.423	0.187	-0.303
-611.244	-11.461	-0.121	-0.080
-610.230	-200.000	0.035	0.229
-609.215	-145.967	0.299	0.026
-608.201	363.495	-0.041	0.083
-607.186	136.936	0.052	0.068
-606.171	-92.031	-0.111	0.031
-605.157	-200.000	-0.031	-0.206
-604.142	783.792	-0.117	0.320
-603.128	-65.575	-0.300	-0.120
-602.113	-51.485	0.181	0.084
-601.098	-200.000	0.001	0.270
-600.084	358.679	0.126	-0.251
-599.069	-200.000	0.042	-0.216
-598.055	-9.387	-0.097	0.064
-597.040	800.000	0.059	0.250
-596.025	389.703	-0.054	0.112
-595.011	216.869	-0.068	0.108
-593.996	213.370	-0.207	0.326
-592.982	80.635	-0.298	0.321
-591.967	-141.665	-0.080	-0.008
-590.952	-74.582	0.200	0.072
-589.938	-108.625	-0.241	-0.052
-588.923	-200.000	-0.018	0.172
-587.909	-163.565	-0.098	-0.005
-586.894	800.000	0.040	0.137
-585.879	364.319	0.154	-0.308
-584.865	-139.877	-0.437	-0.046
-583.850	264.730	0.184	0.320
-582.836	-174.025	0.122	0.004
-581.821	-6.780	0.194	-0.131
-580.806	-172.682	-0.180	-0.006
-579.792	-10.328	0.244	0.161
-578.777	-51.005	0.287	-0.134
-577.763	-117.561	-0.090	0.016
-576.748	-40.725	-0.349	-0.180
-575.733	-200.000	0.121	0.542
-574.719	460.477	-0.062	0.138
-573.704	-168.059	-0.093	-0.004
-572.690	19.828	0.118	-0.095
-571.675	-74.200	-0.356	0.128
-570.661	-39.006	-0.102	-0.053
-569.646	-200.000	0.005	0.324
-568.631	800.000	-0.107	0.312
-567.617	800.000	0.091	0.291
-566.602	-9.378	0.133	0.089
-565.588	51.797	0.328	-0.311
-564.573	-105.261	-0.343	-0.078
-563.558	229.713	-0.092	-0.150
-562.544	-1.651	-0.243	-0.171
-561.529	-41.151	0.201	0.103
-560.515	-200.000	-0.049	-0.326
-559.500	94.629	0.184	0.209
-558.485	15.574	-0.219	0.171
-557.471	177.237	-0.201	-0.291
-556.456	-91.433	-0.246	0.070
-555.442	-200.000	-0.012	-0.221
-554.427	-200.000	-0.028	0.364
-553.412	79.539	0.006	0.006
-552.398	-200.000	-0.033	0.290
-551.383	-4.076	-0.118	-0.081
-550.369	280.616	-0.167	-0.297
-549.354	-51.037	0.381	-0.178
-548.339	-9.836	0.195	0.129
-547.325	140.083	-0.132	-0.173
-546.310	503.765	0.137	-0.316
-545.296	-61.656	-0.174	0.073
-544.281	-200.000	-0.002	0.020
-543.266	-41.758	0.215	-0.110
-542.252	-200.000	-0.038	-0.225
-541.237	-200.000	0.011	-0.144
-540.223	-106.905	0.215	0.047
-539.208	37.475	0.133	0.118
-538.193	297.005	0.101	-0.184
-537.179	-67.037	-0.035	-0.014
-536.164	-200.000	-0.025	-0.122
-535.150	35.982	-0.110	-0.096
-534.135	-99.982	0.281	0.070
-533.121	8.294	0.133	-0.100
-532.106	318.036	-0.157	-0.296
-531.091	384.219	0.059	0.121
-530.077	278.489	-0.089	-0.158
-529.062	107.735	-0.146	-0.173
-528.048	13.896	0.127	0.098
-527.033	-84.620	-0.225	0.071
-526.018	-200.000	0.034	-0.202
-525.004	97.777	0.243	-0.279
-523.989	280.106	-0.089	-0.158
-522.975	-63.279	-0.096	0.039
-521.960	-62.508	0.344	-0.142
-520.945	189.682	-0.069	0.103
-519.931	-30.241	0.360	0.204
-518.916	-200.000	-0.029	0.416
-517.902	179.107	-0.035	-0.052
-516.887	-153.771	-0.166	-0.011
-515.872	800.000	0.053	0.194
-514.858	46.436	-0.035	0.032
-513.843	-30.369	-0.336	-0.190
-512.829	-48.558	-0.199	-0.095
-511.814	-72.380	0.278	0.102
-510.799	649.229	-0.191	0.486
-509.785	-200.000	0.003	-0.039
-508.770	256.336	-0.154	0.262
-507.756	800.000	-0.098	0.270
-506.741	1.544	0.307	-0.220
-505.726	43.916	-0.209	0.191
-504.712	-100.220	0.175	-0.043
-503.697	-200.000	-0.009	0.283
-502.683	-12.473	0.312	-0.203
-501.668	118.324	0.053	-0.065
-500.653	-200.000	-0.001	0.066
-499.639	97.182	-0.066	0.076
-498.624	236.781	-0.054	0.089
-497.610	-45.372	0.102	0.050
-496.595	530.593	-0.065	0.153
-495.581	-29.525	-0.117	-0.067
-494.566	-200.000	0.053	0.249
-493.551	773.694	0.016	-0.044
-492.537	244.358	0.099	0.165
-491.522	53.021	0.060	-0.057
-490.508	65.481	-0.071	0.072
-489.493	22.211	-0.105	0.085
-488.478	128.376	0.082	0.104
-487.464	2.591	-0.257	0.185
-486.449	-73.938	0.272	-0.098
-485.435	511.072	-0.121	0.279
-484.420	-63.014	0.171	-0.070
-483.405	-200.000	-0.018	-0.136
-482.391	-90.467	0.273	-0.079
-481.376	800.000	-0.047	-0.135
-480.362	13.860	-0.092	-0.071
-479.347	115.936	0.191	0.232
-478.332	-22.243	0.272	-0.164
-477.318	627.939	-0.089	0.224
-476.303	60.764	0.145	0.143
-475.289	106.080	-0.182	0.214
-474.274	-200.000	0.033	-0.143
-473.259	-4.708	-0.335	-0.229
-472.245	800.000	0.060	-0.237
-471.230	-44.096	0.225	0.112
-470.216	323.560	-0.058	0.109
-469.201	-200.000	0.032	-0.295
-468.186	-84.028	-0.105	-0.033
-467.172	-61.553	-0.189	-0.079
-466.157	7.212	-0.178	-0.132
-465.143	-200.000	0.072	-0.366
-464.128	102.917	0.065	0.075
-463.113	-136.183	-0.096	-0.011
-462.099	14.009	-0.215	0.166
-461.084	-45.564	-0.123	-0.060
-460.070	223.375	-0.071	0.114
-459.055	-64.307	-0.223	0.090
-458.040	56.775	0.150	0.145
-457.026	800.000	-0.074	-0.227
-456.011	81.443	-0.262	-0.281
-454.997	-200.000	0.063	-0.382
-453.982	757.638	0.082	-0.220
-452.968	-32.799	-0.058	0.032
-451.953	529.136	-0.035	0.081
-450.938	-178.076	0.195	-0.005
-449.924	-80.440	-0.253	0.084
-448.909	-5.385	-0.364	0.248
-447.895	-187.544	-0.138	-0.002
-446.880	224.214	0.171	0.275
-445.865	-200.000	-0.002	-0.124
-444.851	-200.000	-0.022	-0.373
-443.836	9.704	0.202	0.152
-442.822	800.000	-0.061	0.235
-441.807	-200.000	-0.011	-0.093
-440.792	101.255	0.053	0.061
-439.778	540.430	0.056	-0.132
-438.763	-78.032	-0.166	-0.057
-437.749	449.095	-0.057	0.123
-436.734	-101.274	-0.261	-0.063
-435.719	57.977	-0.216	-0.209
-434.705	-200.000	0.045	-0.234
-433.690	25.794	0.226	0.187
-432.676	-200.000	0.011	0.249
-431.661	33.010	-0.061	-0.052
-430.646	455.791	0.141	0.309
-429.632	800.000	-0.115	0.362
-428.617	800.000	-0.060	0.204
-427.603	-200.000	-0.005	0.116
-426.588	-140.878	0.467	0.048
-425.573	-40.100	-0.079	-0.041
-424.559	132.544	-0.052	-0.066
-423.544	123.827	0.251	0.312
-422.530	800.000	-0.079	0.326
-421.515	-105.084	-0.140	-0.032
-420.500	-102.939	-0.218	0.051
-419.486	434.629	-0.193	-0.415
-418.471	-144.222	-0.102	-0.009
-417.457	-90.165	0.222	0.064
-416.442	-90.211	0.293	0.085
-415.428	-200.000	-0.031	-0.158
-414.413	800.000	-0.090	-0.251
-413.398	-31.731	-0.176	-0.098
-412.384	278.653	-0.236	-0.417
-411.369	-12.533	-0.218	-0.141
-410.355	101.835	-0.162	-0.187
-409.340	314.665	-0.049	-0.092
-408.325	-200.000	0.042	0.261
-407.311	435.240	0.042	0.091
-406.296	150.668	-0.091	0.123
-405.282	-135.100	0.146	-0.017
-404.267	-68.377	-0.243	0.094
-403.252	-87.000	0.198	0.060
-402.238	-200.000	0.007	0.060
-401.223	-58.267	-0.388	-0.167
-400.209	94.516	-0.063	-0.070
-399.194	-200.000	-0.028	0.206
-398.179	59.760	-0.155	0.152
-397.165	53.561	-0.122	0.116
-396.150	-123.232	-0.080	-0.013
-395.136	427.656	-0.184	-0.393
-394.121	-200.000	-0.001	0.008
-393.106	-6.961	-0.130	-0.088
-392.092	296.112	-0.047	0.086
-391.077	-72.344	0.529	0.194
-390.063	-44.774	0.329	-0.162
-389.048	156.251	0.133	-0.182
-388.033	165.866	-0.064	-0.089
-387.019	-200.000	0.003	-0.022
-386.004	-200.000	0.018	0.212
-384.990	9.255	-0.296	-0.221
-383.975	-69.627	0.126	0.048
-382.960	339.906	0.090	-0.173
-381.946	-75.714	-0.135	-0.047
-380.931	21.213	0.181	-0.145
-379.917	79.971	-0.119	-0.126
-378.902	-20.337	-0.217	0.132
-377.888	2.323	0.353	0.253
-376.873	-106.843	-0.179	0.039
-375.858	-200.000	0.000	-0.133
-374.844	-200.000	0.020	0.139
-373.829	295.013	0.060	0.109
-372.815	108.596	-0.114	-0.135
-371.800	-146.896	0.106	0.009
-370.785	-96.498	0.040	0.010
-369.771	-43.779	-0.220	0.110
-368.756	-91.571	-0.108	-0.030
-367.742	59.411	-0.077	-0.075
-366.727	-17.787	0.188	0.117
-365.712	93.250	0.108	0.121
-364.698	-8.588	-0.145	-0.097
-363.683	-200.000	-0.058	-0.294
-362.669	-116.535	-0.221	0.040
-361.654	210.632	0.121	-0.188
-360.639	800.000	0.083	0.333
-359.625	-149.715	0.418	-0.032
-358.610	-37.805	-0.199	-0.105
-357.596	105.433	0.072	-0.084
-356.581	-83.457	-0.215	0.068
-355.566	-200.000	-0.061	0.288
-354.552	-4.573	0.141	0.096
-353.537	-43.034	-0.365	-0.183
-352.523	-111.108	0.367	-0.074
-351.508	-200.000	0.093	-0.531
-350.493	-109.934	0.061	-0.013
-349.479	800.000	0.052	0.221
-348.464	344.680	-0.126	-0.244
-347.450	-65.616	-0.189	0.075
-346.435	-66.172	0.204	0.080
-345.420	17.442	-0.132	-0.104
-344.406	-94.520	-0.218	-0.059
-343.391	65.739	-0.149	0.149
-342.377	303.919	-0.133	0.244
-341.362	-74.379	-0.050	-0.018
-340.348	461.131	0.068	0.150
-339.333	-2.308	0.161	0.111
-338.318	-200.000	-0.058	-0.299
-337.304	-6.771	0.104	0.070
-336.289	-86.868	-0.370	-0.112
-335.275	800.000	0.128	-0.410
-334.260	-118.422	0.239	-0.042
-333.245	-74.365	-0.407	-0.145
-332.231	111.704	-0.102	0.121
-331.216	-46.476	0.263	0.127
-330.202	251.103	-0.081	0.136
-329.187	-200.000	-0.009	-0.084
-328.172	86.450	-0.040	0.043
-327.158	8.531	0.230	-0.171
-326.143	-91.530	0.014	-0.004
-325.129	-96.704	-0.017	-0.004
-324.114	-50.541	-0.156	-0.072
-323.099	106.038	-0.125	0.146
-322.085	475.951	-0.111	0.247
-321.070	-200.000	-0.029	-0.189
-320.056	-127.635	0.301	-0.043
-319.041	182.552	-0.047	0.069
-318.026	-74.903	-0.151	-0.054
-317.012	-200.000	0.020	0.177
-315.997	-95.942	-0.201	0.053
-314.983	784.982	0.068	0.184
-313.968	262.180	0.169	-0.288
-312.953	-200.000	-0.027	-0.440
-311.939	-8.753	-0.140	0.093
-310.924	7.398	-0.230	0.169
-309.910	-94.073	-0.273	0.074
-308.895	800.000	0.090	-0.279
-307.880	-67.501	0.299	-0.116
-306.866	-55.837	-0.214	-0.094
-305.851	-200.000	-0.045	0.380
-304.837	109.311	0.087	-0.103
-303.822	-200.000	0.027	0.310
-302.807	-131.706	0.065	-0.008
-301.793	-115.381	0.418	-0.078
-300.778	-83.035	-0.164	0.052
-299.764	281.456	-0.108	0.191
-298.749	-181.747	0.281	-0.005
-297.735	-200.000	0.023	-0.339
-296.720	474.203	0.135	0.299
-295.705	183.159	-0.047	-0.068
-294.691	123.332	-0.112	-0.139
-293.676	-200.000	-0.031	0.453
-292.662	246.746	-0.086	-0.142
-291.647	-200.000	-0.017	-0.147
-290.632	-126.962	0.279	0.040
-289.618	800.000	-0.056	-0.192
-288.603	-39.138	-0.278	0.144
-287.589	-200.000	0.002	-0.203
-286.574	35.286	0.157	0.136
-285.559	-82.559	-0.111	0.036
-284.545	0.021	-0.159	0.112
-283.530	-96.781	0.128	-0.033
-282.516	-71.589	-0.207	0.076
-281.501	-175.530	0.268	-0.007
-280.486	36.288	-0.157	0.136
-279.472	687.465	0.095	0.244
-278.457	-200.000	0.016	0.092
-277.443	83.196	0.183	0.197
-276.428	-2.168	-0.238	-0.165
-275.413	800.000	-0.043	-0.150
-274.399	67.261	0.191	-0.191
-273.384	-200.000	-0.035	-0.173
-272.370	79.849	0.230	0.243
-271.355	-145.583	0.036	0.003
-270.340	-200.000	0.013	-0.065
-269.326	-25.270	0.215	-0.125
-268.311	-47.993	0.463	-0.221
-267.297	-120.291	0.015	-0.003
-266.282	-100.778	0.176	0.043
-265.267	620.293	0.075	-0.186
-264.253	-171.220	0.272	-0.009
-263.238	1.733	-0.293	0.208
-262.224	-200.000	0.017	-0.614
-261.209	-115.886	-0.248	-0.046
-260.195	44.993	-0.150	-0.136
-259.180	-70.030	0.354	0.133
-258.165	93.988	0.046	-0.051
-257.151	122.440	0.120	0.147
-256.136	-18.636	0.340	-0.209
-255.122	-125.371	-0.311	0.047
-254.107	-200.000	-0.011	-0.246
-253.092	-188.969	0.234	0.003
-252.078	-82.437	0.192	-0.062
-251.063	-195.439	-0.157	0.001
-250.049	-116.883	0.225	0.040
-249.034	-200.000	0.052	-0.328
-248.019	291.281	0.173	0.311
-247.005	-55.070	-0.102	-0.045
-245.990	264.062	0.040	-0.069
-244.976	-70.581	0.275	-0.102
-243.961	112.246	0.125	0.149
-242.946	-83.567	-0.271	-0.085
-241.932	45.909	-0.218	0.199
-240.917	-164.758	-0.317	0.014
-239.903	17.220	-0.055	-0.043
-238.888	-200.000	0.046	0.260
-237.873	156.115	-0.281	0.381
-236.859	800.000	-0.083	0.323
-235.844	-50.325	-0.072	0.033
-234.830	13.801	0.139	0.107
-233.815	800.000	0.020	0.069
-232.800	-200.000	0.069	-0.540
-231.786	-137.773	-0.317	-0.035
-230.771	-134.663	0.167	0.020
-229.757	-141.575	0.378	-0.038
-228.742	88.183	-0.084	0.092
-227.727	249.897	0.140	0.234
-226.713	-55.940	0.216	-0.095
-225.698	199.496	0.120	0.182
-224.684	-166.772	0.184	-0.007
-223.669	-25.900	0.146	-0.085
-222.655	-111.799	-0.094	0.019
-221.640	-200.000	-0.005	0.091
-220.625	-126.745	-0.235	-0.034
-219.611	-182.291	0.405	-0.007
-218.596	82.375	-0.121	-0.129
-217.582	97.536	0.161	-0.182
-216.567	-141.761	-0.140	-0.014
-215.552	309.673	-0.226	-0.415
-214.538	42.309	0.113	-0.101
-213.523	800.000	-0.079	-0.287
-212.509	168.761	0.056	-0.078
-211.494	275.604	0.008	0.014
-210.479	800.000	0.097	-0.341
-209.465	-200.000	0.014	0.329
-208.450	-15.045	0.189	0.119
-207.436	99.889	0.057	0.065
-206.421	183.009	0.089	-0.129
-205.406	-66.398	0.290	-0.113
-204.392	800.000	0.058	0.159
-203.377	-109.173	0.164	0.034
-202.363	6.759	-0.295	0.216
-201.348	157.427	0.073	-0.099
-200.333	-9.234	0.240	0.157
-199.319	-200.000	-0.014	0.106
-198.304	-76.537	-0.225	-0.078
-197.290	-200.000	0.050	-0.311
-196.275	715.479	0.070	0.183
-195.260	623.943	0.050	0.124
-194.246	800.000	0.050	0.210
-193.231	800.000	0.046	0.178
-192.217	-151.801	0.245	-0.018
-191.202	-6.707	0.313	0.209
-190.187	-106.700	0.231	0.051
-189.173	-200.000	-0.056	0.359
-188.158	-89.641	0.114	0.033
-187.144	-167.924	0.127	0.005
-186.129	61.380	0.026	0.026
-185.114	-200.000	0.022	0.132
-184.100	180.237	-0.132	0.191
-183.085	366.476	0.093	0.184
-182.071	-73.420	-0.190	0.068
-181.056	502.583	0.034	0.077
-180.042	-26.157	0.202	0.117
-179.027	369.073	-0.066	0.131
-178.012	6.621	-0.136	0.099
-176.998	11.181	-0.052	-0.039
-175.983	-104.303	-0.365	-0.083
-174.969	-200.000	-0.016	0.126
-173.954	-66.496	-0.084	-0.033
-172.939	800.000	-0.032	0.117
-171.925	-34.041	-0.218	-0.118
-170.910	800.000	-0.034	0.125
-169.896	-48.401	0.058	-0.027
-168.881	800.000	-0.026	-0.109
-167.866	800.000	-0.082	-0.230
-166.852	-106.762	0.151	-0.033
-165.837	-14.135	-0.153	0.097
-164.823	-154.751	0.121	-0.008
-163.808	800.000	0.086	0.251
-162.793	141.756	0.038	0.050
-161.779	-73.080	0.211	0.076
-160.764	-151.710	-0.105	-0.008
-159.750	-200.000	0.014	0.118
-158.735	-200.000	0.011	0.184
-157.720	258.135	-0.198	-0.334
-156.706	-200.000	0.046	-0.401
-155.691	-200.000	-0.005	-0.030
-154.677	-200.000	0.040	-0.254
-153.662	800.000	0.116	-0.346
-152.647	-78.962	-0.168	0.056
-151.633	640.471	0.054	-0.134
-150.618	-81.379	-0.336	0.109
-149.604	102.844	0.122	0.140
-148.589	30.939	-0.304	0.256
-147.574	-104.389	0.079	-0.018
-146.560	-200.000	0.025	0.141
-145.545	50.216	0.103	-0.096
-144.531	176.318	0.119	-0.170
-143.516	-200.000	-0.001	0.145
-142.502	40.969	0.280	-0.248
-141.487	-200.000	-0.035	-0.186
-140.472	384.660	0.072	0.145
-139.458	343.609	-0.066	0.127
-138.443	-119.931	0.167	0.028
-137.429	500.386	-0.038	-0.087
-136.414	-119.246	-0.258	0.044
-135.399	154.300	-0.337	0.453
-134.385	205.179	-0.102	-0.155
-133.370	23.275	0.151	0.121
-132.356	153.579	0.142	-0.191
-131.341	-12.517	-0.217	0.138
-130.326	-200.000	0.015	0.080
-129.312	-65.837	-0.203	0.079
-128.297	-46.365	0.220	0.106
-127.283	-159.616	0.160	0.009
-126.268	-82.772	-0.030	0.009
-125.253	141.346	-0.072	0.093
-124.239	-200.000	0.018	0.163
-123.224	-92.762	-0.339	-0.093
-122.210	-93.955	0.385	0.104
-121.195	77.979	-0.150	0.157
-120.180	67.175	0.245	0.244
-119.166	-38.208	0.056	0.029
-118.151	145.546	-0.084	-0.110
-117.137	412.612	-0.067	-0.139
-116.122	-76.246	0.140	0.048
-115.107	-200.000	-0.063	-0.403
-114.093	-90.475	0.101	-0.029
-113.078	21.422	0.080	-0.064
-112.064	556.031	0.065	-0.154
-111.049	800.000	0.046	0.131
-110.034	-18.946	-0.312	-0.190
-109.020	-182.806	0.380	-0.007
-108.005	-105.789	-0.235	0.052
-106.991	-34.615	0.603	-0.323
-105.976	30.726	0.246	0.206
-104.962	800.000	-0.068	-0.247
-103.947	280.578	-0.090	0.157
-102.932	646.453	0.043	-0.107
-101.918	43.726	0.143	0.128
-100.903	6.541	0.149	-0.109
-99.889	87.330	0.089	-0.096
-98.874	800.000	-0.069	0.252
-97.859	-140.280	0.190	-0.019
-96.845	-47.298	-0.168	-0.080
-95.830	136.866	0.271	-0.346
-94.816	103.375	0.182	-0.209
-93.801	360.793	0.031	0.061
-92.786	185.966	0.064	-0.093
-91.772	85.947	0.088	-0.094
-90.757	-144.219	0.309	-0.028
-89.743	54.909	0.298	-0.281
-88.728	-147.153	-0.297	-0.025
-87.713	332.703	-0.220	0.415
-86.699	-176.760	0.192	-0.005
-85.684	692.764	-0.125	0.322
-84.670	597.203	0.110	0.266
-83.655	-200.000	0.038	0.177
-82.640	183.106	0.065	0.094
-81.626	-76.381	-0.127	-0.044
-80.611	189.840	-0.113	-0.166
-79.597	-87.251	-0.093	0.028
-78.582	800.000	0.100	-0.312
-77.567	-200.000	0.019	-0.295
-76.553	-145.191	-0.384	-0.034
-75.538	-77.810	0.306	-0.103
-74.524	232.029	0.172	0.276
-73.509	-29.844	0.331	-0.184
-72.494	226.013	0.070	0.112
-71.480	6.540	0.067	-0.049
-70.465	-200.000	0.019	0.266
-69.451	-27.385	0.434	-0.247
-68.436	248.962	0.190	0.314
-67.422	-162.116	-0.257	0.013
-66.407	-18.007	0.142	0.087
-65.392	-200.000	0.028	0.153
-64.378	90.053	-0.067	0.073
-63.363	595.928	-0.006	-0.013
-62.349	520.265	-0.024	0.056
-61.334	53.248	-0.962	-0.900
-60.319	-48.283	0.607	0.286
-59.305	468.447	-0.503	-1.102
-58.290	800.000	0.438	1.341
-57.276	800.000	0.507	1.576
-56.261	-200.000	116.223	632.790
-55.246	455.864	1512.495	3277.085
-54.232	147.207	2682.849	3526.242
-53.217	101.230	2188.611	2488.329
-52.203	37.823	1708.978	1482.816
-51.188	30.253	1522.449	1269.360
-50.173	27.984	1497.056	1232.851
-49.159	50.319	1556.055	1435.806
-48.144	49.036	1570.881	1440.601
-47.130	30.393	1526.620	1273.598
-46.115	27.308	1511.914	1240.284
-45.100	27.193	1507.908	1236.168
-44.086	27.148	1506.187	1234.400
-43.071	27.129	1503.907	1232.354
-42.057	27.129	1502.291	1230.981
-41.042	27.132	1500.585	1229.556
-40.027	27.171	1499.035	1228.503
-39.013	27.060	1497.720	1226.627
-37.998	27.067	1496.869	1225.928
-36.984	27.031	1495.984	1224.913
-35.969	27.036	1494.480	1223.662
-34.954	27.130	1492.875	1222.932
-33.940	27.151	1491.527	1221.920
-32.925	27.123	1490.105	1220.522
-31.911	27.187	1488.444	1219.545
-30.896	27.185	1487.228	1218.487
-29.881	27.151	1486.170	1217.337
-28.867	27.283	1484.463	1216.774
-27.852	27.215	1483.381	1215.386
-26.838	27.214	1482.140	1214.315
-25.823	27.167	1480.431	1212.556
-24.809	27.204	1478.663	1211.302
-23.794	27.209	1477.581	1210.404
-22.779	27.127	1476.240	1208.713
-21.765	27.134	1475.666	1208.243
-20.750	27.139	1474.327	1207.130
-19.736	27.147	1473.413	1206.383
-18.721	27.146	1471.796	1205.010
-17.706	27.091	1471.250	1204.145
-16.692	27.147	1470.286	1203.681
-15.677	27.241	1468.542	1202.828
-14.663	27.186	1467.958	1201.938
-13.648	27.136	1467.073	1200.838
-12.633	27.083	1465.956	1199.526
-11.619	27.102	1465.539	1199.257
-10.604	27.086	1464.704	1198.423
-9.590	27.001	1463.738	1197.023
-8.575	27.129	1462.595	1196.884
-7.560	27.052	1461.641	1195.549
-6.546	27.143	1460.402	1195.091
-5.531	26.985	1459.927	1193.612
-4.517	27.102	1458.502	1193.171
-3.502	27.099	1457.800	1192.529
-2.487	27.108	1456.764	1191.695
-1.473	27.084	1455.730	1190.640
-0.458	27.139	1454.456	1189.915
0.556	24.248	1444.755	1178.401
1.571	21.179	1420.331	1138.398
2.586	17.764	1357.419	1066.558
3.600	16.192	1271.546	989.785
4.615	15.014	1225.684	947.332
5.629	13.731	1171.076	898.104
6.644	9.068	1091.388	813.340
7.659	4.922	1055.196	765.954
8.673	4.293	1049.496	758.673
9.688	4.130	1046.155	755.392
10.702	3.852	1044.570	752.829
11.717	3.996	1042.269	751.804
12.731	6.382	1044.480	764.934
13.746	11.190	1051.002	793.096
14.761	14.281	1054.792	810.959
15.775	15.086	1054.819	814.830
16.790	14.826	1053.862	812.753
17.804	14.022	1052.254	807.538
18.819	13.475	1050.657	803.585
19.834	12.964	1049.147	799.882
20.848	12.706	1048.013	797.698
21.863	12.386	1046.953	795.271
22.877	12.063	1046.171	793.047
23.892	11.755	1045.224	790.769
24.907	11.525	1044.383	788.951
25.921	11.545	1043.690	788.455
26.936	11.639	1042.827	788.186
27.950	11.579	1042.668	787.705
28.965	11.665	1041.681	787.303
29.980	11.666	1040.837	786.604
30.994	11.647	1039.981	785.797
32.009	11.694	1039.302	785.440
33.023	11.736	1038.257	784.783
34.038	11.784	1037.373	784.275
35.053	11.766	1036.827	783.705
36.067	11.684	1035.750	782.430
37.082	11.755	1034.922	782.076
38.096	11.793	1033.837	781.368
39.111	11.633	1033.570	780.333
40.126	11.644	1032.648	779.618
41.140	11.847	1030.798	779.121
42.155	11.789	1030.228	778.343
43.169	11.706	1029.392	777.250
44.184	11.738	1028.596	776.731
45.199	11.672	1027.449	775.482
46.213	11.634	1026.178	774.274
47.228	11.633	1025.487	773.682
48.242	11.611	1024.693	772.906
49.257	11.624	1023.844	772.261
50.271	11.601	1022.301	770.920
51.286	11.667	1022.060	770.980
52.301	11.710	1021.274	770.522
53.315	11.832	1019.592	769.761
54.330	11.641	1019.024	768.368
55.344	11.594	1018.745	767.868
56.359	11.721	1017.437	767.409
57.374	11.717	1016.516	766.627
58.388	11.646	1016.032	765.863
59.403	11.746	1014.915	765.423
60.417	11.726	1013.911	764.501
61.432	11.651	1013.444	763.731
62.447	11.492	1012.831	762.461
63.461	11.730	1011.368	762.402
64.476	11.672	1010.875	761.693
65.490	11.670	1010.130	761.054
66.505	11.692	1009.152	760.352
67.520	11.704	1008.460	759.820
68.534	11.774	1007.365	759.250
69.549	11.767	1006.626	758.597
70.563	11.659	1006.193	757.702
71.578	11.711	1005.668	757.479
72.593	11.643	1004.777	756.425
73.607	11.656	1003.787	755.673
74.622	11.622	1002.797	754.707
75.636	11.545	1002.169	753.808
76.651	11.693	1001.083	753.608
77.666	11.677	1000.349	752.918
78.680	11.547	999.928	751.934
79.695	11.701	999.313	752.113
80.709	11.644	998.607	751.254
81.724	11.755	997.136	750.588
82.739	11.588	996.737	749.457
83.753	11.774	995.447	749.275
84.768	11.593	995.413	748.351
85.782	11.665	994.158	747.672
86.797	11.766	993.295	747.416
87.812	11.708	992.424	746.433
88.826	11.587	991.934	745.447
89.841	11.712	991.033	745.273
90.855	11.727	989.654	744.238
91.870	11.653	989.410	743.649
92.884	11.783	988.356	743.385
93.899	11.774	987.697	742.782
94.914	11.770	987.101	742.249
95.928	11.714	986.613	741.562
96.943	11.846	985.583	741.321
97.957	11.834	984.784	740.600
98.972	11.848	983.834	739.885
99.987	11.705	983.807	739.152
101.001	11.768	982.875	738.671
102.016	11.846	981.726	738.092
103.030	11.837	980.656	737.182
104.045	11.709	979.933	735.998
105.060	11.793	978.687	735.375
106.074	11.690	977.583	734.018
107.089	11.772	976.984	733.870
108.103	11.743	976.265	733.137
109.118	11.758	975.404	732.492
110.133	11.702	974.999	731.869
111.147	11.804	973.934	731.464
112.162	11.745	972.812	730.294
113.176	11.772	971.949	729.703
114.191	11.772	971.116	729.009
115.206	11.757	970.121	728.134
116.220	11.891	969.412	728.132
117.235	11.883	968.339	727.224
118.249	11.737	967.712	726.041
119.264	11.757	966.945	725.490
120.279	11.872	965.771	725.057
121.293	11.826	965.347	724.471
122.308	11.772	964.389	723.447
123.322	11.771	963.628	722.808
124.337	11.843	962.602	722.294
125.352	11.811	961.480	721.248
126.366	11.885	960.425	720.718
127.381	11.769	959.309	719.304
128.395	11.879	958.090	718.812
129.410	11.796	957.315	717.803
130.424	11.873	956.380	717.374
131.439	11.715	955.712	716.120
132.454	11.846	954.418	715.657
133.468	11.818	953.925	715.101
134.483	11.798	953.256	714.449
135.497	11.738	952.732	713.735
136.512	11.744	951.825	713.018
137.527	11.798	950.982	712.558
138.541	11.837	950.082	711.989
139.556	11.848	949.333	711.412
140.570	11.849	948.602	710.807
141.585	11.743	947.613	709.544
142.600	11.806	946.781	709.129
143.614	11.733	946.587	708.607
144.629	11.824	945.764	708.320
145.643	11.976	944.535	707.995
146.658	11.918	943.847	707.167
147.673	11.797	943.215	706.107
148.687	11.828	942.258	705.462
149.702	11.887	941.227	704.881
150.716	11.847	940.752	704.292
151.731	11.948	939.686	703.864
152.746	11.865	939.090	702.999
153.760	11.938	938.279	702.643
154.775	11.978	936.954	701.763
155.789	11.998	936.366	701.345
156.804	11.847	936.131	700.459
157.819	11.983	935.076	700.191
158.833	11.995	934.074	699.429
159.848	12.103	933.556	699.439
160.862	12.081	932.916	698.807
161.877	12.066	932.083	698.054
162.892	11.989	931.519	697.243
163.906	11.985	930.665	696.524
164.921	12.029	929.981	696.137
165.935	12.029	928.791	695.188
166.950	12.101	927.558	694.506
167.964	12.156	926.881	694.170
168.979	12.185	925.814	693.434
169.994	12.022	925.031	692.100
171.008	12.038	924.467	691.682
172.023	12.066	923.486	691.005
173.037	12.057	922.816	690.404
174.052	12.150	921.626	689.842
175.067	12.152	921.319	689.563
176.081	12.212	920.372	689.045
177.096	12.025	920.075	687.977
178.110	12.103	919.374	687.720
179.125	12.125	918.362	686.992
180.140	12.217	917.127	686.393
181.154	12.214	916.884	686.139
182.169	12.166	916.227	685.385
183.183	12.239	915.268	684.912
184.198	12.310	914.968	684.920
185.213	12.372	914.201	684.546
186.227	12.302	913.705	683.821
187.242	12.339	913.183	683.523
188.256	12.359	912.638	683.139
189.271	12.304	911.720	682.164
190.286	12.568	910.601	682.363
191.300	12.341	910.053	680.948
192.315	12.318	909.728	680.551
193.329	12.320	909.013	679.963
194.344	12.316	908.401	679.431
195.359	12.221	907.915	678.612
196.373	12.389	907.290	678.777
197.388	12.510	906.227	678.423
198.402	12.562	905.833	678.281
199.417	12.483	906.314	678.258
200.432	12.419	905.400	677.248
201.446	12.437	905.222	677.129
202.461	12.527	904.464	676.873
203.475	12.499	903.752	676.167
204.490	12.682	902.645	676.030
205.504	12.566	902.166	675.135
206.519	12.567	901.636	674.683
207.534	12.630	900.706	674.187
208.548	12.612	900.034	673.546
209.563	12.526	899.529	672.757
210.577	12.607	898.634	672.361
211.592	12.470	898.234	671.441
212.607	12.620	897.877	671.731
213.621	12.703	896.996	671.348
214.636	12.715	896.016	670.605
215.650	12.591	895.771	669.856
216.665	12.641	895.106	669.506
217.680	12.688	894.475	669.163
218.694	12.782	893.821	668.997
219.709	12.644	893.909	668.441
220.723	12.824	892.664	668.182
221.738	12.643	892.192	667.039
222.753	12.920	890.892	667.129
223.767	12.822	890.573	666.435
224.782	12.795	889.778	665.672
225.796	12.832	888.961	665.150
226.811	12.783	888.703	664.701
227.826	12.899	887.631	664.307
228.840	12.901	887.160	663.903
229.855	12.869	886.574	663.278
230.869	12.969	885.834	663.069
231.884	12.920	885.320	662.426
232.899	13.132	884.599	662.679
233.913	13.047	883.927	661.774
234.928	12.936	883.580	661.013
235.942	12.940	882.907	660.468
236.957	13.031	881.572	659.773
237.972	12.896	881.623	659.216
238.986	13.056	880.167	658.705
240.001	13.045	879.803	658.330
241.015	12.993	879.225	657.634
242.030	13.234	878.419	657.929
243.045	13.071	877.803	656.765
244.059	12.991	877.428	656.108
245.074	12.957	877.009	655.600
246.088	13.180	875.890	655.589
247.103	13.151	875.375	655.032
248.117	13.054	874.973	654.291
249.132	13.230	874.304	654.429
250.147	13.147	873.715	653.600
251.161	13.258	872.867	653.349
252.176	13.213	872.149	652.574
253.190	13.268	871.436	652.200
254.205	13.177	871.384	651.744
255.220	13.307	870.519	651.552
256.234	13.348	869.428	650.838
257.249	13.360	868.951	650.471
258.263	13.483	868.217	650.347
259.278	13.411	867.737	649.647
260.293	13.460	867.449	649.568
261.307	13.371	866.736	648.628
262.322	13.436	866.239	648.454
263.336	13.380	865.667	647.748
264.351	13.519	864.996	647.730
265.366	13.577	864.356	647.423
266.380	13.527	863.672	646.655
267.395	13.451	862.994	645.795
268.409	13.630	862.131	645.790
269.424	13.543	861.757	645.113
270.439	13.596	861.110	644.778
271.453	13.575	860.250	643.995
272.468	13.557	859.714	643.469
273.482	13.599	859.120	643.130
274.497	13.521	858.431	642.254
275.512	13.664	857.776	642.263
276.526	13.681	856.449	641.275
277.541	13.638	856.247	640.904
278.555	13.629	856.159	640.747
279.570	13.721	855.516	640.562
280.585	13.831	854.475	640.153
281.599	13.865	854.203	640.023
282.614	13.776	853.460	639.066
283.628	13.833	852.975	638.867
284.643	13.846	852.365	638.401
285.657	13.773	851.810	637.648
286.672	13.810	851.504	637.508
287.687	13.692	850.978	636.601
288.701	13.828	850.616	636.796
289.716	13.979	849.051	636.147
290.730	14.006	848.761	635.978
291.745	13.925	848.311	635.272
292.760	14.051	847.064	634.765
293.774	13.957	847.085	634.368
294.789	14.011	846.475	634.058
295.803	14.034	845.946	633.695
296.818	14.055	845.561	633.428
297.833	13.990	844.905	632.634
298.847	14.023	843.808	631.882
299.862	14.019	843.457	631.549
300.876	13.967	842.622	630.669
301.891	14.102	841.618	630.377
302.906	14.163	841.525	630.483
303.920	14.116	840.453	629.443
304.935	14.193	839.901	629.266
305.949	14.192	839.150	628.646
306.964	14.186	838.617	628.166
307.979	14.176	838.740	628.165
308.993	14.249	837.917	627.770
310.008	14.145	837.312	626.868
311.022	14.158	836.787	626.467
312.037	14.286	836.139	626.408
313.052	14.289	835.637	625.990
314.066	14.190	835.299	625.310
315.081	14.440	834.439	625.548
316.095	14.364	833.885	624.792
317.110	14.340	833.398	624.283
318.125	14.295	832.818	623.625
319.139	14.410	832.512	623.771
320.154	14.383	831.959	623.201
321.168	14.316	831.540	622.578
322.183	14.437	831.170	622.699
323.197	14.337	830.527	621.789
324.212	14.505	829.535	621.618
325.227	14.464	829.261	621.206
326.241	14.343	828.832	620.378
327.256	14.426	828.398	620.308
328.270	14.552	827.498	620.047
329.285	14.598	826.825	619.660
330.300	14.501	826.202	618.776
331.314	14.473	826.477	618.826
332.329	14.617	825.220	618.364
333.343	14.496	824.351	617.207
334.358	14.550	824.396	617.389
335.373	14.732	823.475	617.315
336.387	14.523	822.965	616.105
337.402	14.687	822.409	616.242
338.416	14.618	821.572	615.305
339.431	14.652	821.320	615.188
340.446	14.605	820.913	614.654
341.460	14.680	820.118	614.282
342.475	14.721	819.796	614.137
343.489	14.812	818.875	613.727
344.504	14.795	818.303	613.180
345.519	14.750	817.658	612.477
346.533	14.778	817.148	612.145
347.548	14.850	816.995	612.242
348.562	14.882	816.562	611.978
349.577	14.965	815.839	611.687
350.592	14.762	815.632	610.734
351.606	14.994	815.234	611.231
352.621	14.897	814.614	610.358
353.635	14.780	814.479	609.774
354.650	14.929	813.795	609.753
355.665	14.990	813.517	609.713
356.679	14.915	812.732	608.796
357.694	15.009	812.133	608.638
358.708	14.906	811.784	607.948
359.723	14.854	811.361	607.387
360.738	14.870	810.734	606.923
361.752	15.031	809.703	606.679
362.767	15.044	809.739	606.700
363.781	15.103	809.275	606.513
364.796	15.113	808.903	606.218
365.810	15.001	808.556	605.498
366.825	15.056	807.937	605.179
367.840	15.229	807.645	605.533
368.854	15.193	807.302	605.091
369.869	15.146	806.695	604.411
370.883	15.204	806.005	604.051
371.898	15.046	805.802	603.277
372.913	15.165	805.029	603.073
373.927	15.108	804.960	602.763
374.942	15.357	803.700	602.662
375.956	15.174	803.336	601.678
376.971	15.259	802.708	601.457
377.986	15.301	802.159	601.146
379.000	15.385	801.780	601.108
380.015	15.376	801.267	600.637
381.029	15.446	800.742	600.443
382.044	15.338	800.145	599.556
383.059	15.446	799.540	599.434
384.073	15.426	798.968	598.882
385.088	15.474	798.526	598.669
386.102	15.416	798.027	598.036
387.117	15.317	797.814	597.468
388.132	15.459	797.463	597.659
389.146	15.544	796.544	597.221
390.161	15.467	796.593	596.930
391.175	15.580	795.943	596.790
392.190	15.537	795.475	596.234
393.205	15.587	794.892	595.923
394.219	15.521	794.834	595.592
395.234	15.561	794.153	595.172
396.248	15.635	793.809	595.122
397.263	15.480	793.653	594.403
398.278	15.568	792.792	594.018
399.292	15.553	792.639	593.799
400.307	15.702	791.938	593.745
401.321	15.675	791.458	593.239
402.336	15.682	791.222	593.035
403.350	15.736	790.619	592.719
404.365	15.737	790.272	592.411
405.380	15.750	789.674	591.957
406.394	15.781	789.224	591.674
407.409	15.748	788.893	591.258
408.423	15.819	788.456	591.128
409.438	15.744	788.083	590.532
410.453	15.714	787.739	590.117
411.467	15.879	787.223	590.259
412.482	15.840	786.741	589.707
413.496	15.796	786.220	589.111
414.511	15.810	785.970	588.922
415.526	15.870	785.282	588.561
416.540	15.904	785.095	588.487
417.555	15.801	784.910	587.938
418.569	16.068	783.840	588.015
419.584	15.949	783.685	587.432
420.599	15.888	783.323	586.898
421.613	109.734	1295.862	1478.730
422.628	93.914	1370.502	1478.811
