DTS Sentinel unit serial number:	SN413079Multiplexer serial number:	ORYXHardware model number:	OX4-SRSoftware version number:	ORYX F/W v4.00 Oryx Data Collector v3.7.2.0data status	okinstallation	princeton_trtdifferential loss correction	single-endedforward channel	channel 1reverse channel	N/Adate	2019/10/01time	00:02:35forward acquisition time	60.00reverse acquisition time	0.00gamma	496.2192k internal	0.2334k external	0.2334temperature offset calibration	0.9902default loss term (dB/km)	0.3790temperature slope calibration	1.0000multiplexer offset coefficient	1.0000multiplexer slope coefficient	1.0000fibre end	0.00T internal ref (°C)	27.12T ext. ref 1 (°C)	4.06T ext. ref 2 (°C)	21.07length (m)	temperature (°C)	Stokes	anti-Stokes-747.200	31.471	-0.113	-0.098
-746.185	-19.755	-0.300	0.187
-745.171	-107.758	-0.090	0.020
-744.156	136.141	-0.064	0.083
-743.142	-10.086	-0.093	0.062
-742.127	-45.307	0.098	0.049
-741.112	-119.171	-0.166	-0.029
-740.098	-20.683	0.259	0.160
-739.083	-57.502	0.301	-0.133
-738.069	214.273	0.097	-0.155
-737.054	-39.206	-0.183	0.097
-736.039	800.000	-0.042	-0.139
-735.025	65.634	0.183	0.186
-734.010	-53.665	0.140	0.064
-732.996	-149.560	-0.169	0.013
-731.981	-116.872	-0.202	-0.037
-730.966	800.000	-0.050	0.221
-729.952	-200.000	-0.029	0.431
-728.937	-200.000	0.014	0.220
-727.923	271.849	0.217	-0.384
-726.908	427.058	-0.135	0.293
-725.894	-200.000	-0.042	0.217
-724.879	800.000	0.059	0.243
-723.864	-177.253	-0.273	-0.007
-722.850	44.963	-0.211	-0.195
-721.835	-11.370	-0.098	-0.065
-720.821	101.725	-0.173	0.202
-719.806	-200.000	-0.020	0.326
-718.791	-33.493	-0.252	-0.140
-717.777	-42.711	-0.275	0.140
-716.762	92.687	-0.203	-0.230
-715.748	800.000	0.036	0.133
-714.733	352.067	-0.097	0.192
-713.718	139.833	0.074	-0.097
-712.704	133.049	-0.224	0.291
-711.689	-200.000	0.004	0.098
-710.675	-62.783	0.202	0.084
-709.660	-161.907	-0.041	0.002
-708.645	-200.000	-0.070	-0.316
-707.631	70.193	-0.339	-0.351
-706.616	-107.550	0.077	-0.017
-705.602	-114.483	-0.281	0.054
-704.587	3.009	0.081	-0.059
-703.572	69.086	-0.145	0.150
-702.558	-94.635	0.211	-0.058
-701.543	-13.859	0.130	0.084
-700.529	320.317	-0.118	-0.225
-699.514	-200.000	-0.005	-0.173
-698.499	-200.000	-0.016	0.165
-697.485	110.164	0.259	0.312
-696.470	-24.919	0.049	0.029
-695.456	7.049	0.305	0.228
-694.441	-64.913	-0.186	0.075
-693.426	45.768	-0.224	-0.208
-692.412	111.492	-0.254	-0.307
-691.397	800.000	-0.014	-0.042
-690.383	-139.793	0.277	-0.029
-689.368	800.000	-0.117	-0.471
-688.354	-57.526	-0.488	-0.215
-687.339	39.349	0.087	0.078
-686.324	-200.000	-0.028	0.305
-685.310	-141.497	-0.089	-0.009
-684.295	196.266	0.054	-0.083
-683.281	-161.531	-0.279	-0.014
-682.266	764.401	-0.091	-0.249
-681.251	-87.844	-0.084	-0.026
-680.237	800.000	0.018	0.063
-679.222	87.742	-0.231	-0.257
-678.208	-90.687	-0.030	-0.009
-677.193	-200.000	0.006	-0.132
-676.178	32.408	-0.239	-0.207
-675.164	800.000	-0.046	-0.173
-674.149	-56.431	-0.486	-0.216
-673.135	255.529	0.149	0.255
-672.120	-32.091	-0.269	0.151
-671.105	90.256	-0.397	-0.445
-670.091	439.013	0.103	-0.226
-669.076	-30.279	0.417	-0.237
-668.062	-21.421	-0.454	-0.278
-667.047	-200.000	0.022	-0.179
-666.032	-200.000	0.002	0.219
-665.018	-200.000	-0.030	0.189
-664.003	-200.000	-0.001	-0.168
-662.989	-174.208	-0.276	0.008
-661.974	-145.791	-0.242	-0.022
-660.959	-39.280	-0.376	0.198
-659.945	-75.330	-0.215	-0.077
-658.930	16.405	-0.262	0.207
-657.916	-2.872	-0.045	0.031
-656.901	77.287	0.266	-0.284
-655.886	-37.016	-0.193	-0.104
-654.872	67.823	-0.145	-0.149
-653.857	365.454	0.108	0.219
-652.843	-76.410	-0.524	-0.185
-651.828	-50.611	-0.104	0.049
-650.814	-156.861	-0.168	-0.010
-649.799	100.177	-0.166	-0.192
-648.784	58.440	-0.103	0.101
-647.770	800.000	0.045	-0.190
-646.755	238.602	0.200	-0.333
-645.741	162.130	-0.058	-0.082
-644.726	31.884	0.127	-0.110
-643.711	275.057	-0.017	-0.029
-642.697	-200.000	0.029	0.259
-641.682	-31.448	0.071	-0.040
-640.668	-22.558	0.193	-0.117
-639.653	-90.120	0.282	-0.082
-638.638	800.000	-0.037	-0.119
-637.624	-169.489	0.156	-0.006
-636.609	-200.000	0.009	0.144
-635.595	450.774	-0.088	-0.195
-634.580	-93.323	0.052	-0.014
-633.565	-86.889	-0.159	0.049
-632.551	-38.509	-0.209	0.111
-631.536	-118.934	0.234	-0.041
-630.522	443.047	-0.128	-0.280
-629.507	-135.828	-0.297	-0.035
-628.492	471.380	0.019	-0.042
-627.478	-70.514	-0.092	0.035
-626.463	100.369	0.051	-0.059
-625.449	-167.515	-0.143	-0.006
-624.434	-86.052	-0.040	0.012
-623.419	-37.163	0.234	0.125
-622.405	-113.870	-0.298	0.058
-621.390	151.210	0.225	0.307
-620.376	27.856	-0.300	0.253
-619.361	-200.000	0.026	0.206
-618.346	-200.000	-0.016	0.147
-617.332	218.714	-0.123	-0.197
-616.317	95.504	0.383	0.437
-615.303	441.466	0.173	0.379
-614.288	-65.940	0.255	-0.102
-613.273	-143.669	-0.204	-0.019
-612.259	-40.564	-0.076	-0.040
-611.244	-105.290	0.192	-0.044
-610.230	-65.042	0.374	-0.151
-609.215	-45.674	-0.210	-0.104
-608.201	800.000	-0.016	-0.055
-607.186	-200.000	0.022	0.125
-606.171	-200.000	-0.048	-0.258
-605.157	800.000	0.044	0.159
-604.142	-18.958	0.041	-0.025
-603.128	206.847	-0.123	-0.192
-602.113	800.000	0.012	-0.044
-601.098	-18.778	0.330	-0.205
-600.084	20.159	-0.056	0.045
-599.069	-200.000	0.012	-0.453
-598.055	591.350	0.061	0.151
-597.040	377.413	-0.049	-0.100
-596.025	252.688	-0.083	-0.142
-595.011	796.267	0.070	0.192
-593.996	-60.222	0.172	-0.073
-592.982	-150.887	-0.184	0.014
-591.967	-200.000	0.066	-0.373
-590.952	-119.413	-0.162	-0.028
-589.938	432.036	-0.066	0.143
-588.923	415.555	-0.008	-0.017
-587.909	294.533	0.072	-0.132
-586.894	-171.310	0.232	-0.008
-585.879	172.600	0.099	-0.142
-584.865	137.761	-0.053	-0.069
-583.850	183.427	0.147	0.217
-582.836	100.050	-0.104	0.120
-581.821	-200.000	0.042	0.245
-580.806	115.383	-0.226	0.276
-579.792	239.713	-0.065	-0.107
-578.777	-111.607	0.175	-0.035
-577.763	-59.396	-0.131	-0.056
-576.748	-96.007	-0.269	-0.072
-575.733	153.244	0.197	0.270
-574.719	417.230	0.015	-0.031
-573.704	178.530	-0.095	0.139
-572.690	-200.000	-0.037	-0.271
-571.675	368.391	-0.085	0.171
-570.661	-147.798	0.164	-0.014
-569.646	153.874	-0.138	-0.189
-568.631	39.646	0.230	-0.206
-567.617	-78.429	-0.102	0.035
-566.602	20.157	-0.259	-0.208
-565.588	-200.000	-0.009	-0.136
-564.573	172.587	-0.197	-0.283
-563.558	-94.449	-0.211	-0.057
-562.544	105.680	-0.135	-0.160
-561.529	-200.000	-0.062	-0.346
-560.515	-91.309	-0.517	-0.148
-559.500	22.224	-0.152	0.124
-558.485	-200.000	0.001	-0.167
-557.471	800.000	0.062	-0.226
-556.456	56.026	-0.266	0.257
-555.442	-76.945	0.132	-0.046
-554.427	-200.000	-0.017	0.224
-553.412	800.000	-0.102	-0.394
-552.398	-77.770	-0.168	-0.058
-551.383	65.327	0.181	-0.183
-550.369	67.974	0.171	-0.174
-549.354	-42.913	-0.085	-0.043
-548.339	-200.000	0.018	0.218
-547.325	479.946	-0.107	-0.242
-546.310	88.674	0.212	0.235
-545.296	303.491	-0.100	0.185
-544.281	-200.000	0.047	-0.349
-543.266	86.109	0.073	-0.080
-542.252	74.278	0.168	-0.175
-541.237	-15.450	-0.206	0.131
-540.223	341.260	-0.101	0.196
-539.208	-83.253	0.343	0.110
-538.193	-4.971	0.157	-0.108
-537.179	-25.145	0.130	0.077
-536.164	-54.926	-0.288	-0.129
-535.150	388.397	0.095	-0.195
-534.135	800.000	0.113	-0.337
-533.121	-170.847	0.535	0.018
-532.106	-33.918	-0.127	-0.070
-531.091	358.535	0.095	-0.189
-530.077	-165.793	-0.126	-0.005
-529.062	-100.343	0.099	-0.024
-528.048	-65.945	-0.182	0.072
-527.033	800.000	-0.077	0.320
-526.018	-19.964	-0.037	0.023
-525.004	100.380	0.127	-0.147
-523.989	-53.878	-0.374	0.170
-522.975	89.029	0.192	0.213
-521.960	4.738	0.175	0.128
-520.945	258.192	-0.184	0.315
-519.931	-200.000	0.021	0.224
-518.916	470.766	-0.079	0.176
-517.902	-133.084	-0.454	-0.057
-516.887	-200.000	0.386	-0.000
-515.872	23.631	-0.275	-0.225
-514.858	-143.929	0.161	-0.015
-513.843	407.026	0.139	0.293
-512.829	-153.729	-0.193	0.013
-511.814	-129.169	0.166	-0.023
-510.799	-200.000	0.045	-0.283
-509.785	-33.691	-0.356	-0.196
-508.770	712.044	-0.088	-0.233
-507.756	23.920	0.161	-0.132
-506.741	-1.371	-0.216	-0.152
-505.726	-10.909	0.160	0.105
-504.712	800.000	0.048	0.134
-503.697	-149.323	0.122	-0.010
-502.683	229.157	-0.178	0.289
-501.668	-107.703	-0.230	-0.050
-500.653	-98.594	0.043	0.011
-499.639	105.421	0.037	0.043
-498.624	-140.852	0.194	-0.020
-497.610	-200.000	0.063	-0.298
-496.595	-82.765	0.079	0.026
-495.581	-200.000	-0.001	-0.150
-494.566	30.427	-0.268	-0.228
-493.551	800.000	0.118	0.376
-492.537	-90.296	-0.015	0.004
-491.522	-148.874	0.342	0.028
-490.508	-132.523	-0.228	-0.029
-489.493	-200.000	-0.028	-0.157
-488.478	-13.667	-0.145	-0.094
-487.464	171.099	-0.104	0.149
-486.449	435.604	-0.166	-0.359
-485.435	107.815	0.301	-0.357
-484.420	11.033	-0.205	-0.156
-483.405	-64.717	0.262	0.106
-482.391	-200.000	-0.036	0.176
-481.376	62.150	0.124	-0.123
-480.362	3.490	-0.360	-0.261
-479.347	780.530	0.094	-0.257
-478.332	-164.773	0.239	0.011
-477.318	449.560	-0.051	0.113
-476.303	23.111	-0.286	0.234
-475.289	-200.000	0.028	-0.146
-474.274	370.222	-0.045	0.090
-473.259	-200.000	-0.051	0.245
-472.245	83.425	0.146	0.158
-471.230	236.977	-0.109	0.180
-470.216	800.000	0.022	0.087
-469.201	-25.089	0.274	-0.161
-468.186	-38.656	-0.324	-0.170
-467.172	129.068	0.103	-0.130
-466.157	-109.755	-0.113	0.024
-465.143	-130.137	-0.048	-0.006
-464.128	-179.096	-0.385	-0.009
-463.113	-200.000	-0.017	0.242
-462.099	132.976	-0.226	0.290
-461.084	800.000	-0.013	0.036
-460.070	-154.254	-0.188	-0.013
-459.055	800.000	0.020	0.064
-458.040	-16.263	0.198	0.125
-457.026	800.000	0.080	-0.285
-456.011	-200.000	0.011	0.172
-454.997	-200.000	0.001	-0.319
-453.982	259.030	0.238	0.408
-452.968	-117.659	-0.240	0.043
-451.953	-131.381	-0.306	-0.040
-450.938	121.040	0.116	-0.143
-449.924	6.732	0.094	0.069
-448.909	491.794	-0.097	0.222
-447.895	-57.491	-0.080	-0.035
-446.880	-6.716	0.062	-0.042
-445.865	673.138	-0.189	-0.486
-444.851	11.718	-0.140	0.107
-443.836	184.928	-0.124	0.183
-442.822	33.376	-0.323	0.279
-441.807	-35.013	0.076	-0.041
-440.792	-70.485	0.164	0.062
-439.778	-40.059	0.144	0.075
-438.763	-157.459	-0.511	-0.030
-437.749	67.789	0.118	-0.119
-436.734	65.492	0.159	-0.160
-435.719	-113.164	0.183	-0.036
-434.705	97.754	0.190	-0.217
-433.690	-136.373	0.452	0.052
-432.676	182.957	0.095	-0.139
-431.661	-100.046	-0.299	-0.074
-430.646	221.999	-0.197	0.315
-429.632	509.713	-0.113	0.261
-428.617	67.064	-0.115	-0.117
-427.603	723.707	-0.130	-0.344
-426.588	199.700	0.083	0.127
-425.573	-121.944	-0.160	-0.026
-424.559	8.478	-0.232	0.173
-423.544	200.084	0.161	-0.245
-422.530	-200.000	-0.025	0.121
-421.515	-200.000	0.021	-0.250
-420.500	5.975	-0.147	-0.108
-419.486	258.203	-0.101	0.173
-418.471	417.918	-0.054	-0.114
-417.457	-121.341	0.040	0.007
-416.442	-39.702	-0.304	0.158
-415.428	701.132	0.041	-0.107
-414.413	-117.219	0.398	-0.072
-413.398	-159.618	0.186	-0.010
-412.384	800.000	0.078	0.272
-411.369	81.928	0.301	0.323
-410.355	18.874	-0.314	0.250
-409.340	800.000	-0.061	0.178
-408.325	459.504	0.079	-0.175
-407.311	800.000	0.033	0.141
-406.296	293.833	0.087	0.158
-405.282	800.000	0.075	-0.292
-404.267	-133.996	0.062	0.008
-403.252	210.954	0.084	-0.132
-402.238	138.318	-0.200	-0.260
-401.223	-46.200	0.081	-0.040
-400.209	-200.000	0.014	-0.292
-399.194	-200.000	0.001	0.041
-398.179	195.905	-0.199	-0.301
-397.165	-113.546	0.256	0.050
-396.150	-24.399	-0.092	-0.054
-395.136	42.380	0.196	-0.176
-394.121	49.262	-0.091	0.085
-393.106	-200.000	0.034	-0.182
-392.092	186.528	-0.086	0.126
-391.077	303.072	-0.178	0.327
-390.063	800.000	-0.103	-0.310
-389.048	57.596	0.098	0.095
-388.033	-200.000	0.027	0.267
-387.019	-200.000	0.012	-0.181
-386.004	-200.000	0.027	-0.147
-384.990	-200.000	-0.040	0.237
-383.975	-95.066	0.283	-0.076
-382.960	-133.599	-0.121	-0.015
-381.946	-200.000	-0.004	0.100
-380.931	-63.985	-0.546	0.221
-379.917	136.630	0.181	0.234
-378.902	5.464	-0.303	-0.222
-377.888	504.895	0.039	0.089
-376.873	-85.885	0.116	0.036
-375.858	58.643	0.359	-0.350
-374.844	-73.977	-0.073	-0.026
-373.829	800.000	-0.044	-0.185
-372.815	-200.000	0.006	-0.152
-371.800	-107.656	0.087	0.019
-370.785	-73.617	0.232	0.084
-369.771	91.270	-0.208	-0.231
-368.756	-66.576	0.225	0.088
-367.742	388.329	0.102	0.208
-366.727	-95.734	0.342	-0.091
-365.712	-200.000	0.007	-0.119
-364.698	221.970	-0.064	0.102
-363.683	800.000	-0.024	-0.075
-362.669	-143.913	0.320	-0.030
-361.654	-170.257	0.070	0.002
-360.639	-32.597	0.367	0.202
-359.625	-200.000	0.055	-0.311
-358.610	-200.000	-0.041	0.265
-357.596	-200.000	-0.005	0.221
-356.581	-137.413	-0.066	0.007
-355.566	-85.225	0.170	0.052
-354.552	-144.817	0.234	0.021
-353.537	162.770	0.151	-0.211
-352.523	-10.139	-0.429	-0.282
-351.508	-82.954	-0.221	-0.071
-350.493	427.115	-0.078	-0.167
-349.479	-126.935	-0.318	0.046
-348.464	800.000	-0.077	0.246
-347.450	200.555	-0.088	0.134
-346.435	800.000	-0.035	-0.103
-345.420	-34.727	-0.258	0.140
-344.406	258.347	-0.057	0.098
-343.391	-77.063	-0.438	-0.151
-342.377	-200.000	0.005	0.035
-341.362	234.499	-0.224	-0.365
-340.348	-55.655	-0.265	0.117
-339.333	-200.000	0.034	0.348
-338.318	-109.718	0.275	-0.057
-337.304	-25.575	0.060	-0.035
-336.289	800.000	-0.035	-0.145
-335.275	-75.495	-0.220	0.078
-334.260	-200.000	-0.032	0.230
-333.245	800.000	-0.008	0.024
-332.231	76.498	0.270	-0.283
-331.216	130.319	0.169	-0.214
-330.202	-155.873	-0.189	0.012
-329.187	-82.942	0.121	0.039
-328.172	-40.751	-0.266	0.136
-327.158	-200.000	0.020	-0.254
-326.143	-93.913	-0.339	0.092
-325.129	-200.000	0.008	0.253
-324.114	63.867	0.286	-0.284
-323.099	-163.597	0.269	0.013
-322.085	-200.000	-0.015	0.417
-321.070	10.558	0.078	-0.059
-320.056	800.000	-0.097	-0.381
-319.041	-32.040	0.076	-0.042
-318.026	270.860	0.090	-0.157
-317.012	-108.727	-0.055	-0.012
-315.997	-80.294	-0.102	0.034
-314.983	-200.000	-0.049	0.437
-313.968	-127.054	-0.347	-0.050
-312.953	-4.485	0.063	-0.043
-311.939	-138.702	-0.146	0.016
-310.924	22.127	0.271	0.219
-309.910	-34.877	0.147	0.079
-308.895	269.910	-0.114	0.197
-307.880	-53.655	-0.225	0.102
-306.866	-89.200	0.147	0.043
-305.851	128.528	-0.158	0.199
-304.837	72.477	-0.163	-0.168
-303.822	189.829	0.090	-0.134
-302.807	800.000	-0.165	-0.493
-301.793	-191.318	-0.356	0.004
-300.778	146.456	-0.185	-0.245
-299.764	-100.704	0.048	-0.012
-298.749	378.429	-0.070	-0.141
-297.735	329.666	0.137	0.261
-296.720	-200.000	0.011	0.238
-295.705	-106.020	0.178	-0.040
-294.691	-139.011	-0.127	0.014
-293.676	231.988	-0.102	-0.166
-292.662	439.840	-0.041	0.088
-291.647	93.426	-0.105	0.117
-290.632	-145.227	0.258	-0.023
-289.618	-200.000	-0.023	0.335
-288.603	-200.000	0.033	0.269
-287.589	127.435	0.297	0.372
-286.574	244.721	0.125	0.207
-285.559	-3.401	0.323	-0.222
-284.545	138.414	0.141	0.182
-283.530	-45.450	0.143	0.070
-282.516	-131.993	0.158	0.020
-281.501	-125.395	-0.441	0.066
-280.486	-200.000	-0.043	0.239
-279.472	-109.848	0.102	-0.021
-278.457	800.000	-0.124	-0.388
-277.443	225.271	-0.225	-0.359
-276.428	800.000	-0.072	0.231
-275.413	-200.000	0.034	-0.198
-274.399	-46.216	-0.047	0.023
-273.384	-200.000	-0.003	-0.206
-272.370	10.036	0.294	-0.221
-271.355	-73.467	0.222	0.080
-270.340	155.816	-0.130	0.177
-269.326	45.614	0.207	0.189
-268.311	-64.601	-0.051	-0.020
-267.297	-200.000	-0.004	0.121
-266.282	305.106	-0.015	0.028
-265.267	-143.177	-0.215	-0.020
-264.253	218.399	-0.098	0.155
-263.238	-26.311	-0.112	-0.065
-262.224	-97.426	0.098	0.025
-261.209	-55.216	0.372	0.165
-260.195	75.270	-0.056	0.059
-259.180	-200.000	0.004	-0.239
-258.165	97.221	0.013	0.015
-257.151	33.344	-0.106	0.091
-256.136	-7.071	-0.215	-0.144
-255.122	-61.168	0.234	0.097
-254.107	-8.899	0.207	0.137
-253.092	-10.139	0.055	0.036
-252.078	-89.315	-0.150	-0.044
-251.063	47.638	0.342	-0.315
-250.049	-72.096	0.198	0.072
-249.034	-16.478	-0.177	0.111
-248.019	588.190	0.119	0.290
-247.005	534.353	0.162	-0.378
-245.990	-200.000	0.023	0.358
-244.976	138.449	-0.068	0.088
-243.961	-61.155	-0.168	0.070
-242.946	-122.756	0.254	0.041
-241.932	297.401	-0.068	0.123
-240.917	344.936	0.056	-0.109
-239.903	-4.001	-0.127	-0.087
-238.888	800.000	-0.086	-0.316
-237.873	-108.208	0.280	0.060
-236.859	-67.111	-0.172	0.067
-235.844	31.613	-0.032	-0.027
-234.830	546.302	0.095	0.223
-233.815	-148.917	0.091	0.007
-232.800	-178.234	0.309	0.007
-231.786	374.145	-0.054	0.108
-230.771	-200.000	0.019	-0.267
-229.757	266.858	-0.199	-0.342
-228.742	-200.000	-0.018	-0.189
-227.727	800.000	0.042	0.148
-226.713	623.482	-0.033	0.081
-225.698	587.134	-0.076	0.183
-224.684	-200.000	0.032	0.176
-223.669	219.030	-0.060	0.094
-222.655	65.344	0.075	-0.074
-221.640	-200.000	-0.017	0.323
-220.625	99.755	-0.179	0.205
-219.611	513.707	-0.124	-0.284
-218.596	800.000	0.066	-0.186
-217.582	-126.024	0.420	0.062
-216.567	137.960	0.047	0.060
-215.552	82.680	0.150	-0.161
-214.538	73.560	0.188	0.194
-213.523	-174.129	0.204	-0.006
-212.509	-33.604	0.280	-0.152
-211.494	53.992	0.206	0.195
-210.479	551.887	-0.178	0.420
-209.465	-37.583	0.094	0.049
-208.450	225.451	0.139	-0.221
-207.436	-114.761	0.220	0.041
-206.421	-200.000	-0.011	0.144
-205.406	2.268	-0.148	0.105
-204.392	-200.000	0.020	-0.155
-203.377	75.798	0.143	0.149
-202.363	286.270	0.102	0.180
-201.348	-68.280	0.081	0.031
-200.333	327.409	0.076	-0.143
-199.319	-109.602	-0.189	0.039
-198.304	800.000	0.053	-0.222
-197.290	-194.000	-0.226	-0.002
-196.275	-45.507	-0.103	-0.050
-195.260	-200.000	0.156	0.000
-194.246	122.704	0.085	-0.105
-193.231	7.001	0.249	0.182
-192.217	-96.694	-0.267	0.069
-191.202	-106.347	0.200	0.044
-190.187	-200.000	-0.029	0.243
-189.173	-125.107	0.505	0.076
-188.158	-140.562	0.188	0.019
-187.144	-200.000	0.012	0.132
-186.129	72.977	-0.111	-0.114
-185.114	16.805	-0.213	-0.166
-184.100	-200.000	0.002	0.041
-183.085	307.945	0.051	0.094
-182.071	-171.747	0.093	0.003
-181.056	428.660	-0.034	-0.073
-180.042	63.915	-0.079	0.078
-179.027	-68.035	0.244	0.094
-178.012	800.000	0.048	0.140
-176.998	28.680	-0.089	0.074
-175.983	-22.728	-0.540	0.321
-174.969	-11.481	0.232	-0.150
-173.954	800.000	-0.116	0.327
-172.939	-107.257	-0.172	0.037
-171.925	-200.000	0.002	0.120
-170.910	-153.411	-0.031	-0.002
-169.896	-200.000	-0.084	0.400
-168.881	-147.879	0.332	0.027
-167.866	-102.861	0.264	0.062
-166.852	7.703	0.085	-0.063
-165.837	13.057	0.255	-0.194
-164.823	152.603	0.026	0.035
-163.808	-200.000	0.001	-0.255
-162.793	-75.448	0.242	0.085
-161.779	-170.678	-0.218	-0.007
-160.764	800.000	-0.056	0.212
-159.750	375.681	-0.055	-0.109
-158.735	-21.991	0.164	-0.098
-157.720	-111.541	0.049	-0.010
-156.706	88.069	-0.176	0.192
-155.691	-36.381	-0.149	0.079
-154.677	40.847	-0.188	-0.166
-153.662	-162.883	-0.295	0.014
-152.647	330.620	0.073	0.138
-151.633	-136.777	-0.143	-0.016
-150.618	-77.240	0.280	0.096
-149.604	671.551	0.031	-0.080
-148.589	421.041	0.127	0.267
-147.574	-107.308	-0.215	0.046
-146.560	-54.854	0.263	-0.117
-145.545	-186.924	-0.110	0.002
-144.531	-9.331	0.242	0.159
-143.516	-91.372	-0.378	0.106
-142.502	0.346	0.341	0.239
-141.487	-200.000	0.043	-0.191
-140.472	-200.000	-0.032	-0.389
-139.458	567.662	0.041	0.098
-138.443	-77.798	-0.448	-0.152
-137.429	-111.463	0.096	-0.019
-136.414	29.135	-0.129	-0.107
-135.399	24.296	-0.163	0.133
-134.385	583.670	-0.006	-0.015
-133.370	143.907	0.142	-0.186
-132.356	94.040	0.029	0.032
-131.341	-95.126	0.145	-0.038
-130.326	-97.615	0.503	0.128
-129.312	198.873	-0.040	0.061
-128.297	-200.000	0.017	0.100
-127.283	16.625	-0.203	-0.157
-126.268	10.092	-0.129	-0.096
-125.253	217.950	0.186	-0.291
-124.239	-131.967	0.482	0.062
-123.224	52.463	0.144	0.135
-122.210	122.229	0.077	-0.094
-121.195	441.935	-0.073	0.157
-120.180	265.513	0.055	-0.095
-119.166	800.000	-0.136	-0.415
-118.151	244.093	0.209	-0.345
-117.137	800.000	0.062	-0.194
-116.122	-140.585	-0.291	0.030
-115.107	271.658	-0.066	-0.114
-114.093	170.181	0.038	-0.053
-113.078	0.147	0.212	0.149
-112.064	-31.368	-0.194	-0.107
-111.049	113.359	-0.059	0.071
-110.034	-5.756	0.120	0.081
-109.020	-109.046	0.102	-0.021
-108.005	800.000	-0.129	0.359
-106.991	130.131	0.186	-0.234
-105.976	-182.509	-0.432	-0.008
-104.962	800.000	0.018	0.060
-103.947	75.539	-0.086	0.089
-102.932	800.000	-0.057	-0.171
-101.918	-0.658	0.184	0.128
-100.903	275.041	-0.088	-0.153
-99.889	-55.707	0.209	0.092
-98.874	-40.801	-0.163	-0.083
-97.859	-62.810	-0.068	0.028
-96.845	-22.540	-0.206	-0.122
-95.830	641.477	0.073	-0.182
-94.816	62.960	-0.089	-0.088
-93.801	-79.724	0.217	0.072
-92.786	48.029	0.157	-0.144
-91.772	-80.400	-0.116	0.038
-90.757	-54.369	0.199	0.089
-89.743	-35.249	0.316	0.168
-88.728	-82.101	-0.431	-0.138
-87.713	-65.620	-0.165	-0.065
-86.699	343.038	0.047	-0.090
-85.684	-123.302	0.171	0.027
-84.670	116.981	-0.165	0.199
-83.655	639.448	-0.004	-0.010
-82.640	127.601	-0.185	0.230
-81.626	446.091	-0.030	0.065
-80.611	-43.066	0.161	0.080
-79.597	-58.848	0.237	-0.100
-78.582	-166.285	0.090	0.004
-77.567	109.129	0.231	0.270
-76.553	-200.000	-0.064	-0.446
-75.538	-97.056	-0.278	0.071
-74.524	-151.428	-0.053	-0.004
-73.509	800.000	0.046	-0.148
-72.494	624.449	-0.065	0.162
-71.480	106.631	0.233	0.271
-70.465	77.628	-0.117	-0.122
-69.451	576.665	0.157	0.376
-68.436	-134.438	0.319	-0.038
-67.422	210.354	-0.179	-0.274
-66.407	326.538	-0.075	0.141
-65.392	-71.553	0.156	0.057
-64.378	-179.207	-0.076	0.002
-63.363	-29.993	-0.103	-0.058
-62.349	498.448	0.093	-0.210
-61.334	4.214	-1.166	-0.836
-60.319	392.718	0.448	0.913
-59.305	-200.000	-0.217	-1.213
-58.290	132.233	1.052	1.326
-57.276	440.903	0.702	1.502
-56.261	-200.000	115.823	631.113
-55.246	451.969	1512.579	3271.189
-54.232	146.399	2683.951	3526.025
-53.217	101.728	2168.909	2474.721
-52.203	38.745	1605.717	1402.329
-51.188	30.396	1347.171	1126.114
-50.173	27.472	1308.528	1076.516
-49.159	53.305	1364.930	1279.550
-48.144	51.686	1379.518	1283.411
-47.130	30.636	1333.629	1116.058
-46.115	27.259	1315.949	1081.183
-45.100	27.106	1310.640	1075.870
-44.086	27.032	1308.019	1073.238
-43.071	26.977	1305.832	1071.078
-42.057	26.940	1304.006	1069.319
-41.042	27.085	1302.316	1068.744
-40.027	27.013	1300.703	1066.958
-39.013	26.940	1298.919	1065.021
-37.998	27.048	1297.314	1064.295
-36.984	27.004	1295.371	1062.399
-35.969	26.977	1293.966	1061.050
-34.954	27.131	1291.659	1060.017
-33.940	27.134	1290.351	1058.915
-32.925	27.187	1289.132	1058.184
-31.911	27.204	1287.132	1056.597
-30.896	27.206	1286.052	1055.679
-29.881	27.266	1284.615	1054.810
-28.867	27.202	1283.581	1053.544
-27.852	27.215	1282.050	1052.322
-26.838	27.277	1280.496	1051.365
-25.823	27.261	1279.275	1050.227
-24.809	27.176	1278.510	1049.066
-23.794	27.217	1276.974	1048.001
-22.779	27.186	1275.751	1046.776
-21.765	27.294	1274.187	1046.075
-20.750	27.195	1272.947	1044.447
-19.736	27.113	1271.772	1042.968
-18.721	27.324	1269.928	1042.625
-17.706	27.148	1268.983	1040.797
-16.692	27.082	1268.311	1039.827
-15.677	27.054	1267.415	1038.896
-14.663	27.110	1266.030	1038.038
-13.648	27.027	1264.876	1036.574
-12.633	26.935	1264.159	1035.419
-11.619	27.114	1262.890	1035.360
-10.604	27.100	1261.955	1034.473
-9.590	27.131	1260.994	1033.825
-8.575	27.061	1260.096	1032.647
-7.560	27.057	1259.260	1031.898
-6.546	27.105	1258.378	1031.404
-5.531	27.008	1257.287	1029.919
-4.517	27.095	1256.251	1029.524
-3.502	27.099	1255.706	1029.059
-2.487	27.106	1254.588	1028.144
-1.473	26.947	1250.910	1024.190
-0.458	25.389	1235.644	1002.959
0.556	19.240	1219.288	966.581
1.571	15.651	1225.456	951.111
2.586	14.798	1240.048	957.469
3.600	14.650	1228.781	947.841
4.615	11.909	1159.418	879.553
5.629	6.955	1088.530	800.674
6.644	4.398	1070.400	774.521
7.659	4.055	1068.391	771.290
8.673	3.933	1067.190	769.748
9.688	3.866	1065.522	768.144
10.702	4.389	1063.898	769.502
11.717	8.160	1068.560	791.550
12.731	12.785	1074.899	819.217
13.746	14.764	1077.069	830.646
14.761	15.066	1076.912	831.954
15.775	14.547	1075.779	828.431
16.790	13.857	1074.004	823.568
17.804	13.169	1072.670	819.059
18.819	12.824	1071.367	816.285
19.834	12.493	1070.641	814.019
20.848	12.155	1069.278	811.241
21.863	11.945	1068.140	809.268
22.877	11.600	1067.579	807.070
23.892	11.562	1066.574	806.053
24.907	11.534	1066.136	805.508
25.921	11.620	1065.200	805.154
26.936	11.603	1064.578	804.530
27.950	11.648	1063.662	803.989
28.965	11.712	1062.166	803.099
29.980	11.710	1060.727	801.932
30.994	11.570	1060.190	800.768
32.009	11.701	1059.008	800.448
33.023	11.648	1057.812	799.212
34.038	11.715	1056.703	798.629
35.053	11.670	1056.053	797.850
36.067	11.627	1055.127	796.872
37.082	11.700	1054.175	796.438
38.096	11.677	1053.398	795.667
39.111	11.707	1052.642	795.169
40.126	11.697	1051.213	793.974
41.140	11.517	1050.589	792.560
42.155	11.695	1048.896	792.072
43.169	11.674	1047.875	791.128
44.184	11.653	1046.652	790.035
45.199	11.576	1045.748	788.910
46.213	11.546	1044.895	788.055
47.228	11.630	1043.783	787.550
48.242	11.547	1042.587	786.176
49.257	11.562	1041.392	785.279
50.271	11.665	1040.842	785.290
51.286	11.614	1039.993	784.335
52.301	11.628	1039.056	783.624
53.315	11.689	1038.011	783.059
54.330	11.561	1037.438	781.948
55.344	11.592	1036.436	781.269
56.359	11.657	1035.062	780.473
57.374	11.560	1034.593	779.590
58.388	11.532	1033.786	778.779
59.403	11.489	1032.746	777.721
60.417	11.510	1031.853	777.080
61.432	11.731	1030.509	777.053
62.447	11.505	1030.461	775.873
63.461	11.506	1029.328	774.955
64.476	11.559	1028.432	774.463
65.490	11.572	1027.903	774.059
66.505	11.519	1026.892	772.977
67.520	11.591	1025.854	772.465
68.534	11.577	1025.512	772.076
69.549	11.610	1024.665	771.527
70.563	11.630	1024.111	771.134
71.578	11.577	1023.184	770.120
72.593	11.524	1022.593	769.357
73.607	11.467	1021.545	768.232
74.622	11.493	1020.884	767.786
75.636	11.626	1020.098	767.754
76.651	11.388	1019.871	766.396
77.666	11.525	1018.791	766.161
78.680	11.527	1018.464	765.858
79.695	11.512	1017.502	764.993
80.709	11.577	1016.935	764.807
81.724	11.534	1016.488	764.201
82.739	11.519	1015.742	763.503
83.753	11.691	1014.621	763.393
84.768	11.512	1013.946	761.983
85.782	11.651	1012.847	761.741
86.797	11.464	1012.570	760.591
87.812	11.511	1010.785	759.402
88.826	11.653	1009.596	759.101
89.841	11.646	1008.917	758.492
90.855	11.528	1008.204	757.341
91.870	11.671	1007.028	757.054
92.884	11.492	1006.642	755.868
93.899	11.787	1005.066	755.981
94.914	11.765	1004.446	755.347
95.928	11.714	1003.921	754.647
96.943	11.670	1003.099	753.762
97.957	11.643	1002.416	753.056
98.972	11.618	1001.304	752.038
99.987	11.748	1000.203	751.745
101.001	11.683	999.427	750.797
102.016	11.663	998.583	750.001
103.030	11.734	997.486	749.439
104.045	11.763	996.938	749.092
105.060	11.723	996.486	748.503
106.074	11.649	995.644	747.468
107.089	11.576	994.375	746.112
108.103	11.742	992.895	745.694
109.118	11.682	992.575	745.114
110.133	11.714	991.490	744.382
111.147	11.678	990.729	743.580
112.162	11.590	990.126	742.660
113.176	11.681	989.450	742.501
114.191	11.715	988.277	741.712
115.206	11.760	987.734	741.439
116.220	11.601	987.232	740.280
117.235	11.763	985.771	739.852
118.249	11.688	984.594	738.564
119.264	11.773	984.026	738.454
120.279	11.738	983.340	737.718
121.293	11.639	982.464	736.547
122.308	11.707	981.820	736.305
123.322	11.776	980.469	735.538
124.337	11.778	979.518	734.770
125.352	11.860	978.038	733.962
126.366	11.809	977.057	732.933
127.381	11.904	975.865	732.398
128.395	11.738	975.218	731.104
129.410	11.699	974.622	730.419
130.424	11.752	973.433	729.703
131.439	11.789	972.615	729.189
132.454	11.862	972.236	729.165
133.468	11.790	971.306	728.082
134.483	11.804	970.088	727.166
135.497	11.777	969.190	726.311
136.512	11.698	968.579	725.435
137.527	11.755	967.424	724.759
138.541	11.835	966.578	724.417
139.556	11.738	966.323	723.730
140.570	11.742	965.258	722.890
141.585	11.921	964.099	722.745
142.600	11.899	963.209	721.919
143.614	11.762	962.364	720.615
144.629	11.863	961.901	720.650
145.643	11.825	961.249	719.934
146.658	11.808	959.828	718.731
147.673	11.814	959.100	718.147
148.687	11.773	958.518	717.465
149.702	11.695	957.706	716.453
150.716	11.883	956.714	716.474
151.731	11.939	956.155	716.234
152.746	11.941	955.607	715.771
153.760	11.797	954.683	714.386
154.775	11.900	954.080	714.321
155.789	11.959	953.421	714.020
156.804	11.968	952.415	713.242
157.819	11.954	951.716	712.599
158.833	11.998	951.245	712.374
159.848	12.027	950.442	711.832
160.862	11.918	949.416	710.528
161.877	12.017	948.593	710.280
162.892	12.033	947.679	709.602
163.906	12.008	946.613	708.633
164.921	11.974	946.198	708.113
165.935	11.985	945.097	707.275
166.950	12.020	944.073	706.595
167.964	12.174	943.126	706.487
168.979	12.016	942.441	705.233
169.994	12.050	941.276	704.444
171.008	12.093	940.801	704.211
172.023	12.186	939.772	703.778
173.037	12.244	939.383	703.671
174.052	12.119	938.808	702.642
175.067	12.178	938.066	702.278
176.081	12.033	937.938	701.500
177.096	12.186	936.954	701.356
178.110	12.120	936.640	700.778
179.125	12.218	935.811	700.511
180.140	12.170	935.491	700.006
181.154	12.237	934.608	699.568
182.169	12.301	934.124	699.417
183.183	12.253	933.402	698.612
184.198	12.253	932.587	697.940
185.213	12.241	931.979	697.372
186.227	12.418	930.971	697.308
187.242	12.377	930.521	696.734
188.256	12.467	929.743	696.472
189.271	12.406	929.066	695.646
190.286	12.385	928.836	695.323
191.300	12.303	928.175	694.418
192.315	12.257	927.354	693.548
193.329	12.355	926.743	693.442
194.344	12.312	926.292	692.861
195.359	12.383	925.576	692.566
196.373	12.390	924.768	691.931
197.388	12.474	924.281	691.857
198.402	12.298	924.171	690.972
199.417	12.440	923.143	690.740
200.432	12.425	922.325	690.003
201.446	12.629	922.034	690.581
202.461	12.574	921.785	690.101
203.475	12.524	921.144	689.352
204.490	12.518	919.927	688.354
205.504	12.578	918.991	687.847
206.519	12.532	918.534	687.250
207.534	12.611	917.760	686.940
208.548	12.541	917.612	686.475
209.563	12.504	916.807	685.661
210.577	12.460	916.095	684.883
211.592	12.648	914.975	684.768
212.607	12.687	914.295	684.361
213.621	12.667	913.620	683.712
214.636	12.734	912.858	683.356
215.650	12.810	912.097	683.041
216.665	12.648	911.117	681.580
217.680	12.854	910.556	681.950
218.694	12.800	910.051	681.290
219.709	12.809	909.691	680.998
220.723	12.770	908.727	680.054
221.738	12.701	907.989	679.156
222.753	12.794	907.293	678.957
223.767	12.893	906.571	678.766
224.782	12.813	906.287	678.165
225.796	12.872	905.783	677.968
226.811	12.809	905.613	677.521
227.826	12.877	904.336	676.789
228.840	12.859	903.755	676.218
229.855	13.011	903.042	676.246
230.869	12.997	902.039	675.381
231.884	12.739	901.769	674.063
232.899	13.001	900.292	673.970
233.913	12.937	900.009	673.434
234.928	12.915	899.417	672.843
235.942	12.915	898.880	672.381
236.957	12.928	898.846	672.349
237.972	13.053	897.469	671.769
238.986	13.091	896.689	671.283
240.001	12.978	896.517	670.633
241.015	12.983	895.508	669.840
242.030	13.076	895.082	669.838
243.045	13.073	894.619	669.420
244.059	12.987	894.116	668.636
245.074	13.022	893.342	668.140
246.088	13.113	892.168	667.573
247.103	13.038	892.063	667.128
248.117	13.074	891.533	666.820
249.132	13.059	890.997	666.302
250.147	13.143	890.109	665.916
251.161	13.013	889.717	665.041
252.176	13.205	889.052	665.258
253.190	13.265	888.185	664.791
254.205	13.369	887.106	664.342
255.220	13.404	886.344	663.854
256.234	13.240	885.991	662.870
257.249	13.386	885.161	662.776
258.263	13.268	884.602	661.826
259.278	13.271	883.953	661.298
260.293	13.480	883.343	661.617
261.307	13.366	883.160	660.963
262.322	13.379	882.546	660.499
263.336	13.516	881.379	660.113
264.351	13.525	880.599	659.508
265.366	13.448	880.065	658.741
266.380	13.643	879.481	659.021
267.395	13.584	878.702	658.145
268.409	13.485	878.508	657.548
269.424	13.461	877.389	656.556
270.439	13.737	876.536	656.955
271.453	13.597	876.111	656.024
272.468	13.591	875.571	655.539
273.482	13.660	874.856	655.216
274.497	13.774	874.198	655.114
275.512	13.751	873.710	654.604
276.526	13.580	873.686	653.851
277.541	13.730	872.602	653.573
278.555	13.647	872.310	652.970
279.570	13.671	871.711	652.558
280.585	13.889	870.584	652.514
281.599	13.873	869.860	651.849
282.614	13.892	869.055	651.264
283.628	13.906	868.473	650.824
284.643	13.833	867.977	650.109
285.657	13.824	867.790	649.879
286.672	13.883	866.619	649.171
287.687	13.887	866.370	648.944
288.701	13.900	865.971	648.640
289.716	13.923	865.302	648.170
290.730	13.957	864.623	647.737
291.745	13.976	863.806	647.142
292.760	14.023	863.160	646.784
293.774	13.922	862.740	646.020
294.789	14.076	861.964	645.980
295.803	13.999	861.218	645.063
296.818	13.979	860.869	644.669
297.833	13.928	860.403	644.064
298.847	13.974	859.396	643.433
299.862	14.138	858.632	643.438
300.876	14.210	857.780	643.021
301.891	14.209	857.456	642.717
302.906	14.035	857.228	641.819
303.920	14.191	856.340	641.695
304.935	14.234	855.722	641.344
305.949	14.120	855.620	640.772
306.964	14.250	854.490	640.367
307.979	14.193	854.561	640.143
308.993	14.288	853.881	639.945
310.008	14.249	853.094	639.147
311.022	14.192	852.453	638.390
312.037	14.343	851.762	638.399
313.052	14.319	851.500	638.052
314.066	14.350	850.698	637.515
315.081	14.406	850.127	637.244
316.095	14.271	849.757	636.394
317.110	14.237	849.301	635.867
318.125	14.387	848.451	635.745
319.139	14.382	848.032	635.358
320.154	14.407	847.589	635.062
321.168	14.481	846.983	634.835
322.183	14.334	846.697	634.006
323.197	14.368	846.092	633.626
324.212	14.473	845.617	633.611
325.227	14.335	845.222	632.736
326.241	14.410	844.105	632.129
327.256	14.440	843.690	631.876
328.270	14.428	843.561	631.679
329.285	14.596	842.665	631.588
330.300	14.531	841.956	630.755
331.314	14.473	841.573	630.192
332.329	14.577	841.197	630.248
333.343	14.468	840.908	629.562
334.358	14.426	840.432	628.994
335.373	14.388	840.058	628.512
336.387	14.605	839.418	628.798
337.402	14.597	839.236	628.576
338.416	14.625	838.888	628.363
339.431	14.656	838.246	627.944
340.446	14.634	837.935	627.571
341.460	14.718	837.612	627.592
342.475	14.795	836.659	627.110
343.489	14.719	837.022	627.044
344.504	14.775	836.096	626.503
345.519	14.752	835.754	626.103
346.533	14.788	835.410	625.925
347.548	14.721	834.610	625.022
348.562	14.827	834.491	625.273
349.577	14.838	833.815	624.752
350.592	14.900	833.085	624.381
351.606	14.827	832.711	623.772
352.621	14.826	831.618	622.896
353.635	14.802	831.182	622.424
354.650	15.004	830.397	622.534
355.665	14.897	829.783	621.621
356.679	14.889	829.445	621.282
357.694	15.097	828.377	621.200
358.708	14.982	827.974	620.414
359.723	14.895	827.326	619.552
360.738	14.939	827.059	619.463
361.752	14.871	826.645	618.845
362.767	15.096	825.485	618.754
363.781	15.016	825.251	618.228
364.796	15.056	824.660	617.876
365.810	15.164	824.163	617.849
366.825	15.047	823.865	617.139
367.840	15.001	823.417	616.578
368.854	15.080	822.810	616.360
369.869	15.143	822.468	616.284
370.883	15.351	821.622	616.357
371.898	15.162	821.902	615.818
372.913	15.157	821.474	615.427
373.927	15.174	820.904	615.007
374.942	15.390	820.009	615.075
375.956	15.208	820.058	614.389
376.971	15.312	819.202	614.074
377.986	15.434	818.721	614.105
379.000	15.321	818.494	613.467
380.015	15.328	817.911	613.001
381.029	15.561	817.296	613.337
382.044	15.508	816.797	612.715
383.059	15.381	816.432	611.924
384.073	15.503	815.633	611.715
385.088	15.442	815.260	611.159
386.102	15.541	814.353	610.786
387.117	15.490	813.931	610.229
388.132	15.453	813.585	609.783
389.146	15.522	812.795	609.385
390.161	15.557	812.443	609.196
391.175	15.570	812.115	608.944
392.190	15.456	811.737	608.193
393.205	15.557	810.981	607.938
394.219	15.678	810.618	608.050
395.234	15.473	810.792	607.385
396.248	15.513	810.032	606.904
397.263	15.688	809.277	606.919
398.278	15.521	809.439	606.383
399.292	15.560	808.736	605.942
400.307	15.660	808.220	605.863
401.321	15.691	807.929	605.704
402.336	15.627	807.565	605.146
403.350	15.602	806.661	604.325
404.365	15.525	806.632	603.974
405.380	15.675	805.923	603.928
406.394	15.829	805.381	604.022
407.409	15.621	804.841	602.819
408.423	15.828	804.736	603.428
409.438	15.841	804.070	602.923
410.453	15.776	803.811	602.440
411.467	15.816	803.508	602.304
412.482	15.911	802.952	602.172
413.496	15.893	802.576	601.773
414.511	15.880	802.321	601.482
415.526	16.034	801.604	601.441
416.540	15.950	801.215	600.797
417.555	16.051	800.603	600.645
418.569	15.905	800.508	600.000
419.584	15.990	799.747	599.678
420.599	15.976	799.382	599.304
421.613	109.232	1297.738	1478.500
422.628	93.888	1370.295	1478.599
