DTS Sentinel unit serial number:	SN413079Multiplexer serial number:	ORYXHardware model number:	OX4-SRSoftware version number:	ORYX F/W v4.00 Oryx Data Collector v3.7.2.0data status	okinstallation	princeton_trtdifferential loss correction	single-endedforward channel	channel 4reverse channel	N/Adate	2019/10/01time	00:01:34forward acquisition time	60.00reverse acquisition time	0.00gamma	496.2192k internal	0.2322k external	0.2322temperature offset calibration	0.9945default loss term (dB/km)	0.3790temperature slope calibration	1.0000multiplexer offset coefficient	1.0000multiplexer slope coefficient	1.0000fibre end	0.00T internal ref (°C)	27.12T ext. ref 1 (°C)	4.04T ext. ref 2 (°C)	21.06length (m)	temperature (°C)	Stokes	anti-Stokes-747.200	-137.699	0.258	0.029
-746.185	33.905	-0.256	0.225
-745.171	800.000	-0.050	0.198
-744.156	608.464	-0.042	0.105
-743.142	554.688	-0.043	0.104
-742.127	135.906	-0.121	-0.160
-741.112	-26.180	0.042	0.025
-740.098	-78.399	-0.170	0.059
-739.083	-200.000	-0.026	-0.119
-738.069	550.466	-0.136	0.330
-737.054	163.687	0.154	0.219
-736.039	324.649	-0.156	-0.301
-735.025	-200.000	0.081	0.445
-734.010	-137.802	-0.275	0.031
-732.996	-140.653	-0.139	0.014
-731.981	-86.764	0.071	0.022
-730.966	199.429	0.105	-0.163
-729.952	-141.757	-0.185	0.019
-728.937	-200.000	-0.017	-0.431
-727.923	800.000	-0.089	-0.360
-726.908	122.319	-0.099	0.125
-725.894	-30.941	-0.666	-0.380
-724.879	-99.566	0.193	0.049
-723.864	99.924	-0.081	-0.095
-722.850	800.000	0.033	0.122
-721.835	800.000	0.107	-0.427
-720.821	-200.000	-0.008	0.232
-719.806	-71.851	-0.180	0.067
-718.791	-98.996	-0.112	-0.029
-717.777	332.005	0.195	-0.380
-716.762	-109.717	0.137	0.029
-715.748	800.000	0.071	0.288
-714.733	-200.000	-0.013	0.057
-713.718	800.000	-0.101	0.340
-712.704	52.969	0.085	-0.082
-711.689	625.051	0.032	-0.081
-710.675	114.501	0.101	-0.124
-709.660	289.971	-0.095	0.174
-708.645	-135.137	0.298	-0.036
-707.631	-139.791	0.248	0.027
-706.616	-60.633	0.186	0.079
-705.602	-0.454	-0.523	-0.375
-704.587	800.000	-0.044	-0.140
-703.572	-200.000	-0.003	0.067
-702.558	-200.000	-0.017	-0.108
-701.543	800.000	-0.085	-0.348
-700.529	-63.059	0.222	-0.093
-699.514	127.054	-0.145	0.185
-698.499	-68.328	0.132	0.052
-697.485	800.000	0.150	0.488
-696.470	160.064	0.219	0.308
-695.456	-200.000	0.032	0.228
-694.441	503.605	-0.084	-0.197
-693.426	-9.824	0.189	0.127
-692.412	101.470	0.099	-0.117
-691.397	-73.082	-0.087	-0.032
-690.383	-79.367	0.327	0.112
-689.368	14.490	0.200	-0.158
-688.354	214.265	0.106	-0.168
-687.339	800.000	-0.096	0.281
-686.324	-200.000	-0.032	0.185
-685.310	-130.086	-0.258	-0.036
-684.295	-48.435	0.240	0.116
-683.281	-77.185	0.334	-0.117
-682.266	159.663	0.173	-0.242
-681.251	-13.135	-0.191	0.125
-680.237	187.334	0.155	-0.233
-679.222	-200.000	0.018	-0.188
-678.208	-127.886	-0.397	0.058
-677.193	-85.098	-0.294	0.093
-676.178	214.286	0.249	0.397
-675.164	-200.000	-0.029	0.277
-674.149	-31.063	0.095	-0.054
-673.135	-111.494	-0.343	-0.070
-672.120	342.437	-0.091	-0.180
-671.105	800.000	0.120	0.483
-670.091	752.242	0.122	-0.331
-669.076	-23.068	-0.401	0.244
-668.062	800.000	0.070	0.215
-667.047	-129.376	-0.593	-0.083
-666.032	123.923	-0.180	0.227
-665.018	106.798	-0.025	-0.030
-664.003	800.000	0.126	-0.374
-662.989	-120.473	0.172	0.029
-661.974	-170.473	0.132	-0.005
-660.959	-200.000	0.017	-0.213
-659.945	68.829	0.128	-0.132
-658.930	95.475	-0.111	-0.127
-657.916	-152.412	-0.129	0.009
-656.901	800.000	0.090	0.287
-655.886	193.572	-0.173	0.264
-654.872	96.611	0.120	0.138
-653.857	-25.905	0.235	0.139
-652.843	-7.135	0.087	-0.059
-651.828	-200.000	-0.059	-0.271
-650.814	20.063	-0.136	-0.110
-649.799	53.399	-0.227	-0.219
-648.784	107.596	-0.077	0.092
-647.770	800.000	-0.069	-0.276
-646.755	440.078	-0.044	-0.097
-645.741	370.820	0.023	-0.046
-644.726	450.941	-0.086	-0.191
-643.711	160.614	-0.146	0.205
-642.697	-155.884	-0.333	-0.021
-641.682	62.199	0.104	0.104
-640.668	39.370	0.309	-0.278
-639.653	1.062	-0.207	0.149
-638.638	-160.333	0.113	0.006
-637.624	-200.000	-0.035	-0.229
-636.609	-177.802	0.139	-0.003
-635.595	-139.518	-0.115	0.012
-634.580	-200.000	0.001	-0.143
-633.565	280.795	0.134	0.241
-632.551	268.623	0.043	-0.076
-631.536	800.000	-0.020	-0.073
-630.522	-170.647	-0.169	-0.006
-629.507	800.000	-0.040	-0.128
-628.492	800.000	0.052	-0.185
-627.478	-79.482	-0.165	-0.056
-626.463	-135.464	-0.408	0.049
-625.449	37.571	0.192	-0.172
-624.434	-4.643	-0.141	-0.098
-623.419	129.828	-0.108	-0.140
-622.405	33.663	0.263	-0.230
-621.390	-200.000	0.025	-0.256
-620.376	-200.000	0.049	-0.249
-619.361	215.695	-0.112	-0.179
-618.346	800.000	0.068	-0.248
-617.332	-47.164	-0.071	-0.035
-616.317	299.813	-0.150	-0.278
-615.303	-108.052	0.339	-0.074
-614.288	-134.997	0.307	0.037
-613.273	-87.769	0.216	0.065
-612.259	-200.000	0.068	-0.308
-611.244	-200.000	-0.032	0.154
-610.230	-111.071	0.035	0.007
-609.215	83.909	-0.045	-0.049
-608.201	633.194	-0.043	0.109
-607.186	-200.000	0.070	0.369
-606.171	-199.856	-0.183	0.001
-605.157	-101.115	-0.233	0.057
-604.142	120.262	0.031	0.039
-603.128	-200.000	0.027	0.262
-602.113	-82.500	-0.114	-0.037
-601.098	-200.000	0.044	-0.274
-600.084	-47.141	-0.326	-0.160
-599.069	-179.439	0.086	0.002
-598.055	164.769	0.075	0.107
-597.040	47.639	0.174	-0.163
-596.025	-37.480	-0.137	0.073
-595.011	412.371	-0.086	0.184
-593.996	263.642	0.076	0.132
-592.982	627.424	0.017	-0.043
-591.967	-96.053	-0.502	0.134
-590.952	-200.000	-0.015	0.182
-589.938	-80.323	-0.079	0.027
-588.923	121.203	-0.141	0.176
-587.909	68.037	-0.171	-0.176
-586.894	103.822	0.041	-0.048
-585.879	-200.000	-0.029	0.264
-584.865	-13.431	0.335	-0.218
-583.850	-94.307	0.342	-0.094
-582.836	-27.713	0.160	-0.093
-581.821	-65.497	-0.160	0.064
-580.806	-200.000	0.051	0.229
-579.792	-111.798	-0.224	0.045
-578.777	-46.796	-0.129	0.063
-577.763	-88.785	-0.113	-0.034
-576.748	345.551	-0.122	0.241
-575.733	-200.000	-0.029	0.186
-574.719	250.444	0.093	0.158
-573.704	104.536	-0.182	0.215
-572.690	75.429	-0.239	-0.254
-571.675	-127.357	-0.229	-0.033
-570.661	156.145	0.043	-0.059
-569.646	-200.000	0.008	0.141
-568.631	-200.000	-0.065	-0.298
-567.617	-146.940	0.362	0.031
-566.602	-62.019	0.242	-0.102
-565.588	-200.000	-0.003	-0.229
-564.573	-76.380	-0.045	-0.016
-563.558	-200.000	-0.014	0.236
-562.544	-161.802	0.046	0.002
-561.529	-80.232	0.094	-0.032
-560.515	-119.891	-0.202	0.035
-559.500	-154.360	0.046	-0.003
-558.485	274.920	0.075	-0.133
-557.471	32.893	-0.178	-0.155
-556.456	-200.000	-0.040	-0.292
-555.442	-91.129	0.168	-0.048
-554.427	77.253	-0.173	-0.185
-553.412	33.912	-0.409	-0.357
-552.398	-189.584	-0.432	0.005
-551.383	595.994	-0.108	0.268
-550.369	81.567	0.113	-0.122
-549.354	-130.275	-0.274	0.037
-548.339	-161.025	0.312	0.016
-547.325	-200.000	0.013	-0.230
-546.310	-47.923	-0.157	-0.076
-545.296	522.285	-0.130	-0.306
-544.281	612.731	-0.060	-0.149
-543.266	-127.741	0.314	0.045
-542.252	800.000	-0.096	-0.353
-541.237	-200.000	0.009	-0.299
-540.223	800.000	0.052	-0.156
-539.208	291.862	0.063	-0.114
-538.193	-154.993	-0.254	0.017
-537.179	751.092	0.054	0.146
-536.164	-102.616	-0.289	-0.069
-535.150	-71.152	-0.236	0.089
-534.135	-180.672	-0.063	0.001
-533.121	-0.752	0.201	0.143
-532.106	-108.829	0.270	0.058
-531.091	137.724	-0.160	-0.210
-530.077	204.289	-0.039	-0.061
-529.062	-45.455	0.179	0.089
-528.048	-200.000	-0.043	0.322
-527.033	-72.036	-0.129	-0.048
-526.018	-13.748	-0.175	-0.113
-525.004	-75.357	-0.409	0.146
-523.989	300.732	0.092	0.170
-522.975	-88.709	-0.430	0.128
-521.960	-200.000	-0.003	-0.177
-520.945	358.030	-0.071	-0.142
-519.931	-19.527	-0.138	-0.086
-518.916	45.828	-0.139	-0.129
-517.902	350.223	0.013	-0.026
-516.887	388.212	0.089	-0.184
-515.872	153.153	-0.136	0.187
-514.858	166.792	0.160	0.227
-513.843	276.314	-0.157	-0.279
-512.829	-112.511	-0.123	0.025
-511.814	40.778	0.129	-0.117
-510.799	114.023	-0.150	0.183
-509.785	-37.773	-0.176	-0.094
-508.770	-23.514	0.280	-0.168
-507.756	-200.000	0.024	-0.268
-506.741	121.517	-0.104	0.129
-505.726	-200.000	-0.059	0.293
-504.712	-130.716	0.039	0.005
-503.697	329.645	0.151	0.291
-502.683	-87.584	-0.191	0.058
-501.668	-200.000	-0.060	0.284
-500.653	-131.077	-0.038	-0.005
-499.639	-56.615	0.235	-0.104
-498.624	-200.000	0.054	-0.449
-497.610	-200.000	-0.005	-0.219
-496.595	-200.000	-0.064	-0.341
-495.581	316.757	0.069	-0.130
-494.566	-19.377	-0.196	0.121
-493.551	7.915	0.131	0.098
-492.537	-100.790	0.159	-0.039
-491.522	-200.000	-0.034	-0.263
-490.508	-200.000	0.050	-0.248
-489.493	49.284	-0.093	0.087
-488.478	88.858	0.139	-0.155
-487.464	-127.575	0.351	0.051
-486.449	15.010	0.118	0.092
-485.435	-75.425	-0.117	0.042
-484.420	188.964	-0.075	-0.112
-483.405	135.029	-0.068	-0.088
-482.391	-200.000	0.045	0.238
-481.376	-98.131	0.164	-0.042
-480.362	-91.724	-0.095	0.027
-479.347	116.953	0.109	-0.134
-478.332	12.288	0.174	-0.134
-477.318	3.773	-0.190	-0.139
-476.303	-9.519	0.113	-0.075
-475.289	414.011	0.234	-0.498
-474.274	-200.000	-0.007	0.107
-473.259	173.283	-0.068	0.099
-472.245	-59.854	-0.023	-0.010
-471.230	-32.119	0.087	0.049
-470.216	-171.052	0.185	0.006
-469.201	80.842	0.161	0.174
-468.186	-200.000	0.055	-0.270
-467.172	-200.000	0.011	-0.306
-466.157	-93.950	0.107	0.029
-465.143	237.261	0.131	0.217
-464.128	-40.623	-0.360	-0.187
-463.113	179.446	0.047	-0.069
-462.099	-4.990	-0.259	-0.178
-461.084	10.448	0.206	-0.157
-460.070	-89.322	-0.215	-0.063
-459.055	18.605	-0.079	-0.063
-458.040	-52.588	0.395	-0.182
-457.026	120.299	-0.208	-0.258
-456.011	626.247	0.093	0.233
-454.997	-134.950	0.082	0.010
-453.982	158.863	-0.061	0.085
-452.968	639.097	-0.044	-0.111
-451.953	-122.896	-0.404	0.065
-450.938	-51.894	-0.290	0.135
-449.924	48.052	0.008	0.008
-448.909	-38.131	0.178	-0.094
-447.895	89.732	0.075	0.084
-446.880	89.154	-0.070	-0.078
-445.865	800.000	0.027	0.085
-444.851	-176.110	-0.100	0.003
-443.836	39.937	0.210	0.189
-442.822	-67.814	-0.355	0.139
-441.807	-96.678	0.081	-0.021
-440.792	-154.077	0.120	0.008
-439.778	184.948	0.047	-0.069
-438.763	-200.000	0.070	-0.330
-437.749	53.414	0.163	-0.156
-436.734	-83.317	0.252	-0.081
-435.719	513.238	-0.030	0.071
-434.705	-63.428	-0.402	-0.165
-433.690	-106.372	-0.071	0.016
-432.676	-136.902	-0.268	-0.031
-431.661	-200.000	0.109	-0.000
-430.646	11.752	0.076	0.058
-429.632	19.418	0.200	0.161
-428.617	-200.000	-0.001	0.173
-427.603	-47.521	0.138	-0.067
-426.588	-81.492	-0.665	-0.218
-425.573	-200.000	-0.071	0.396
-424.559	185.368	-0.053	0.078
-423.544	800.000	0.064	-0.228
-422.530	-200.000	0.004	-0.092
-421.515	98.952	0.085	-0.098
-420.500	-200.000	0.000	0.015
-419.486	-200.000	-0.010	-0.051
-418.471	432.628	0.056	0.121
-417.457	259.209	-0.003	-0.006
-416.442	-83.572	0.216	0.069
-415.428	30.681	-0.156	-0.133
-414.413	-26.890	-0.202	-0.117
-413.398	76.404	0.052	-0.055
-412.384	-96.106	0.149	0.039
-411.369	375.086	0.053	0.108
-410.355	157.717	-0.164	0.227
-409.340	800.000	-0.056	0.217
-408.325	88.417	0.114	0.126
-407.311	800.000	0.011	-0.031
-406.296	-200.000	-0.029	-0.208
-405.282	322.538	0.091	-0.173
-404.267	58.063	-0.017	-0.017
-403.252	-200.000	-0.033	0.217
-402.238	74.707	0.212	0.222
-401.223	-100.980	0.428	0.105
-400.209	76.241	-0.036	-0.038
-399.194	166.034	0.092	0.130
-398.179	-101.015	0.054	-0.013
-397.165	-4.037	-0.165	0.114
-396.150	-138.185	0.051	-0.006
-395.136	-193.599	0.386	0.003
-394.121	-148.784	-0.039	-0.003
-393.106	41.934	0.032	0.029
-392.092	299.900	-0.108	-0.198
-391.077	-24.078	-0.023	-0.014
-390.063	-200.000	0.028	0.175
-389.048	-113.270	0.318	0.062
-388.033	46.648	0.211	-0.195
-387.019	-31.439	-0.191	0.107
-386.004	223.044	0.068	-0.109
-384.990	21.523	0.150	0.121
-383.975	-108.935	0.225	0.048
-382.960	467.647	0.131	0.293
-381.946	601.095	0.011	0.026
-380.931	623.090	0.087	-0.219
-379.917	-143.082	0.191	0.018
-378.902	381.718	0.075	-0.154
-377.888	-200.000	0.042	0.272
-376.873	800.000	0.052	-0.154
-375.858	800.000	-0.051	-0.178
-374.844	174.884	0.122	-0.175
-373.829	25.051	0.282	0.233
-372.815	-13.962	0.193	0.124
-371.800	-200.000	0.042	0.209
-370.785	-200.000	-0.025	-0.111
-369.771	-200.000	-0.011	0.125
-368.756	251.985	-0.018	0.030
-367.742	-200.000	-0.001	-0.166
-366.727	78.352	-0.133	-0.142
-365.712	-55.982	0.367	0.163
-364.698	-83.912	-0.358	-0.114
-363.683	-68.909	-0.235	0.090
-362.669	90.176	-0.079	0.088
-361.654	100.223	0.084	0.097
-360.639	-200.000	-0.038	-0.170
-359.625	-200.000	0.009	0.062
-358.610	-10.694	0.161	-0.106
-357.596	220.454	0.082	0.131
-356.581	-2.961	0.258	0.179
-355.566	114.477	-0.190	-0.230
-354.552	35.782	-0.045	0.039
-353.537	-200.000	-0.004	-0.144
-352.523	-200.000	0.017	-0.346
-351.508	-200.000	0.020	0.232
-350.493	36.567	-0.014	-0.012
-349.479	300.590	0.254	0.467
-348.464	-52.008	0.097	-0.045
-347.450	152.933	-0.194	0.264
-346.435	59.384	0.116	0.114
-345.420	-200.000	-0.001	0.377
-344.406	800.000	0.091	-0.254
-343.391	213.802	0.165	0.260
-342.377	-91.830	0.142	0.040
-341.362	243.669	-0.137	-0.228
-340.348	98.631	-0.083	0.095
-339.333	275.855	0.073	0.129
-338.318	57.109	-0.141	0.137
-337.304	-200.000	-0.031	0.158
-336.289	-92.148	-0.181	0.051
-335.275	-39.477	-0.079	-0.041
-334.260	-200.000	-0.007	-0.139
-333.245	103.627	-0.178	0.208
-332.231	148.259	0.028	-0.037
-331.216	556.737	-0.139	-0.333
-330.202	198.918	-0.183	0.279
-329.187	-200.000	0.034	0.388
-328.172	-163.712	0.169	0.008
-327.158	-85.254	-0.338	-0.105
-326.143	728.171	-0.139	-0.368
-325.129	221.326	0.052	0.083
-324.114	-45.298	0.435	0.215
-323.099	76.482	0.009	-0.009
-322.085	177.302	-0.029	-0.042
-321.070	-200.000	0.037	0.162
-320.056	547.779	0.148	0.351
-319.041	1.370	-0.191	-0.137
-318.026	-132.380	-0.104	-0.013
-317.012	-16.643	-0.201	-0.126
-315.997	-83.637	0.208	0.066
-314.983	-13.242	0.197	-0.127
-313.968	-56.705	-0.328	0.144
-312.953	-19.721	0.170	0.104
-311.939	-178.991	0.164	-0.004
-310.924	78.625	-0.049	-0.052
-309.910	537.746	-0.068	-0.160
-308.895	-59.548	-0.294	-0.125
-307.880	19.106	0.161	0.128
-306.866	228.847	-0.292	0.474
-305.851	-186.421	0.107	0.002
-304.837	-13.401	0.151	-0.098
-303.822	1.170	0.352	0.251
-302.807	-86.030	-0.152	0.047
-301.793	341.619	-0.248	0.481
-300.778	-165.193	0.246	0.011
-299.764	189.633	-0.150	-0.224
-298.749	800.000	0.097	-0.335
-297.735	-29.045	-0.213	0.121
-296.720	-200.000	0.022	-0.225
-295.705	-75.440	0.067	-0.024
-294.691	108.184	0.267	-0.316
-293.676	-81.971	0.070	-0.023
-292.662	-186.412	-0.190	-0.003
-291.647	800.000	0.126	-0.415
-290.632	259.809	0.066	0.113
-289.618	108.080	-0.102	-0.120
-288.603	-50.996	-0.420	0.195
-287.589	-200.000	0.010	0.059
-286.574	-44.845	-0.146	-0.072
-285.559	-57.510	-0.183	-0.080
-284.545	-200.000	0.010	0.107
-283.530	649.490	0.034	-0.087
-282.516	-126.728	0.051	0.008
-281.501	17.690	-0.175	-0.138
-280.486	800.000	0.152	0.420
-279.472	-200.000	-0.021	0.120
-278.457	800.000	-0.064	-0.199
-277.443	40.276	-0.100	-0.089
-276.428	59.628	-0.173	0.169
-275.413	69.146	0.318	0.324
-274.399	-10.119	-0.230	0.151
-273.384	-147.307	0.327	-0.028
-272.370	311.177	0.128	0.239
-271.355	-60.772	-0.331	0.139
-270.340	800.000	0.033	-0.113
-269.326	-119.264	0.151	0.026
-268.311	-200.000	-0.036	0.301
-267.297	-5.045	0.230	0.157
-266.282	-12.852	-0.153	-0.099
-265.267	-97.842	-0.172	-0.044
-264.253	-130.139	0.055	0.007
-263.238	-142.740	-0.154	-0.015
-262.224	110.052	-0.167	-0.199
-261.209	-200.000	-0.008	-0.096
-260.195	71.854	0.273	0.281
-259.180	-35.435	0.105	0.057
-258.165	-74.001	0.183	-0.066
-257.151	-58.671	0.112	0.048
-256.136	599.512	-0.097	-0.238
-255.122	78.512	0.218	-0.231
-254.107	-149.435	0.138	-0.011
-253.092	-116.815	-0.144	-0.026
-252.078	-11.309	0.393	0.256
-251.063	-200.000	0.031	-0.137
-250.049	12.900	-0.254	-0.195
-249.034	68.952	-0.130	-0.132
-248.019	-148.484	-0.148	0.012
-247.005	-77.839	0.372	-0.127
-245.990	400.414	-0.146	0.304
-244.976	-91.034	0.179	-0.051
-243.961	-66.457	-0.119	0.047
-242.946	417.224	-0.011	-0.023
-241.932	109.805	0.057	0.068
-240.917	-200.000	-0.034	0.204
-239.903	104.523	0.098	-0.114
-238.888	127.321	0.162	0.203
-237.873	-4.214	0.069	-0.047
-236.859	86.630	-0.236	0.258
-235.844	-200.000	0.031	-0.194
-234.830	-115.335	0.070	0.013
-233.815	384.033	0.158	0.322
-232.800	-200.000	-0.005	-0.045
-231.786	359.080	0.070	-0.138
-230.771	-29.743	0.132	0.075
-229.757	521.886	-0.055	0.128
-228.742	-200.000	0.052	0.492
-227.727	16.281	0.248	0.194
-226.713	58.462	-0.209	-0.203
-225.698	-13.525	0.183	-0.117
-224.684	800.000	-0.054	0.157
-223.669	198.546	0.052	0.079
-222.655	-70.424	-0.114	0.043
-221.640	-148.179	-0.129	-0.011
-220.625	-78.188	-0.269	0.092
-219.611	-3.827	0.156	0.107
-218.596	-93.944	-0.306	0.083
-217.582	-0.026	0.180	0.127
-216.567	-117.911	-0.086	0.015
-215.552	-200.000	-0.034	0.154
-214.538	-200.000	0.011	0.419
-213.523	800.000	-0.027	0.089
-212.509	-200.000	0.008	0.154
-211.494	46.072	0.049	-0.045
-210.479	-27.887	0.223	-0.128
-209.465	362.434	0.071	-0.140
-208.450	-154.834	-0.083	-0.005
-207.436	315.653	0.214	-0.400
-206.421	223.532	0.069	-0.110
-205.406	126.492	0.118	-0.147
-204.392	-150.674	0.221	0.017
-203.377	-1.979	0.146	0.101
-202.363	-200.000	-0.006	0.401
-201.348	5.439	0.109	-0.080
-200.333	-100.572	-0.166	0.041
-199.319	-86.363	0.164	0.050
-198.304	7.496	0.272	0.201
-197.290	278.825	0.108	-0.190
-196.275	374.984	-0.100	0.202
-195.260	-200.000	-0.006	0.465
-194.246	181.415	-0.173	0.251
-193.231	41.573	0.059	-0.053
-192.217	-200.000	0.005	-0.100
-191.202	264.641	-0.153	0.264
-190.187	-59.510	0.120	0.051
-189.173	97.829	0.035	0.040
-188.158	800.000	0.019	-0.053
-187.144	122.198	-0.252	-0.312
-186.129	180.326	0.249	-0.361
-185.114	94.619	-0.179	-0.201
-184.100	438.187	-0.091	0.197
-183.085	-200.000	0.015	0.293
-182.071	78.905	0.126	-0.133
-181.056	-13.825	0.165	-0.105
-180.042	-89.756	0.197	-0.057
-179.027	-20.246	-0.402	-0.244
-178.012	739.161	-0.019	-0.049
-176.998	800.000	-0.083	0.359
-175.983	-200.000	0.040	-0.376
-174.969	-26.605	-0.161	0.093
-173.954	-152.792	0.156	-0.011
-172.939	-200.000	-0.002	0.018
-171.925	-24.352	-0.064	-0.037
-170.910	61.292	0.228	0.224
-169.896	-200.000	-0.054	0.282
-168.881	22.107	0.190	-0.153
-167.866	-160.977	-0.184	0.010
-166.852	-52.621	0.207	0.094
-165.837	-124.806	-0.036	0.006
-164.823	-58.378	0.183	-0.079
-163.808	409.315	-0.085	0.177
-162.793	-200.000	0.112	0.508
-161.779	467.542	-0.111	0.247
-160.764	628.884	-0.095	-0.238
-159.750	-200.000	-0.042	-0.197
-158.735	-137.917	0.237	-0.026
-157.720	800.000	-0.049	0.172
-156.706	800.000	0.030	-0.127
-155.691	-80.271	0.260	-0.086
-154.677	-118.227	-0.226	-0.040
-153.662	260.909	-0.103	0.176
-152.647	-89.547	-0.078	0.023
-151.633	-200.000	-0.021	0.233
-150.618	-107.934	-0.275	-0.059
-149.604	-159.822	0.154	0.008
-148.589	14.105	-0.122	0.094
-147.574	142.876	0.060	0.078
-146.560	-150.887	0.387	-0.029
-145.545	800.000	0.055	0.214
-144.531	-94.165	0.258	0.070
-143.516	-200.000	0.021	0.123
-142.502	-200.000	-0.001	-0.193
-141.487	800.000	0.101	0.304
-140.472	-8.767	0.217	0.144
-139.458	-46.081	-0.152	-0.074
-138.443	-69.779	-0.094	-0.035
-137.429	23.646	-0.084	-0.068
-136.414	293.465	0.026	0.047
-135.399	-20.217	-0.141	-0.085
-134.385	771.770	0.067	0.179
-133.370	800.000	0.066	0.226
-132.356	800.000	-0.049	-0.139
-131.341	-200.000	0.037	0.166
-130.326	-167.871	0.200	-0.008
-129.312	-200.000	-0.006	0.197
-128.297	66.512	0.215	0.215
-127.283	800.000	-0.032	0.120
-126.268	-63.610	0.183	0.074
-125.253	60.862	-0.107	0.104
-124.239	800.000	-0.015	-0.058
-123.224	186.587	0.151	0.222
-122.210	99.407	0.159	0.182
-121.195	13.168	-0.162	0.123
-120.180	8.311	0.164	0.121
-119.166	-101.349	-0.160	-0.038
-118.151	800.000	0.019	-0.065
-117.137	17.482	0.320	0.251
-116.122	-46.627	-0.173	0.083
-115.107	612.344	0.061	0.150
-114.093	-30.236	0.181	0.101
-113.078	800.000	-0.170	0.463
-112.064	20.822	0.342	0.273
-111.049	-26.485	-0.062	-0.036
-110.034	-74.338	0.257	0.091
-109.020	-74.192	-0.390	-0.139
-108.005	496.225	-0.141	0.320
-106.991	118.211	0.144	0.175
-105.976	109.545	0.243	0.287
-104.962	-13.773	-0.171	-0.109
-103.947	800.000	-0.017	0.071
-102.932	201.123	-0.147	-0.223
-101.918	-151.820	-0.232	-0.017
-100.903	-44.623	-0.138	0.068
-99.889	-7.424	-0.143	-0.095
-98.874	-35.369	-0.045	0.024
-97.859	31.901	0.084	-0.071
-96.845	-111.544	-0.348	-0.070
-95.830	-31.393	0.283	0.157
-94.816	-31.553	-0.182	0.101
-93.801	-200.000	-0.024	0.256
-92.786	-200.000	0.026	0.265
-91.772	800.000	-0.017	0.062
-90.757	800.000	-0.050	0.140
-89.743	151.152	0.158	-0.212
-88.728	173.741	-0.199	-0.283
-87.713	-89.518	0.330	-0.095
-86.699	-200.000	-0.058	0.254
-85.684	-102.567	0.354	0.083
-84.670	24.797	0.157	-0.128
-83.655	-200.000	-0.018	-0.329
-82.640	-64.863	0.102	-0.040
-81.626	800.000	0.186	0.520
-80.611	-61.801	0.294	-0.121
-79.597	-200.000	0.006	0.200
-78.582	-200.000	0.033	0.181
-77.567	800.000	-0.053	0.168
-76.553	69.936	-0.089	0.090
-75.538	-108.805	-0.131	0.028
-74.524	-200.000	0.015	0.183
-73.509	-151.281	0.217	0.016
-72.494	340.378	-0.089	0.171
-71.480	-200.000	-0.051	-0.339
-70.465	172.982	0.080	-0.114
-69.451	27.057	0.173	-0.143
-68.436	-200.000	0.121	0.534
-67.422	-154.105	0.422	0.028
-66.407	-12.048	-0.195	-0.126
-65.392	19.924	0.097	0.077
-64.378	-70.467	-0.186	-0.069
-63.363	-97.293	0.247	0.063
-62.349	-12.044	0.277	0.178
-61.334	12.990	-1.015	-0.772
-60.319	100.689	0.616	0.704
-59.305	800.000	-0.296	-0.923
-58.290	231.502	0.784	1.263
-57.276	800.000	0.579	1.670
-56.261	-200.000	115.424	630.082
-55.246	448.654	1510.503	3272.624
-54.232	143.418	2693.496	3526.167
-53.217	92.106	2344.211	2595.916
-52.203	33.621	2091.289	1787.335
-51.188	28.875	2004.828	1670.372
-50.173	27.494	1986.763	1642.807
-49.159	44.430	2045.390	1846.822
-48.144	43.422	2062.000	1852.508
-47.130	29.329	2020.612	1687.409
-46.115	27.118	2010.061	1658.375
-45.100	27.076	2006.899	1655.316
-44.086	27.053	2004.895	1653.392
-43.071	27.069	2001.880	1650.984
-42.057	27.030	1999.844	1648.887
-41.042	26.970	1998.106	1646.844
-40.027	26.969	1996.300	1645.285
-39.013	27.089	1993.953	1644.371
-37.998	27.080	1992.180	1642.757
-36.984	27.010	1990.441	1640.626
-35.969	27.101	1988.341	1639.656
-34.954	27.050	1986.975	1638.001
-33.940	27.116	1985.082	1636.968
-32.925	27.167	1983.353	1635.940
-31.911	27.216	1981.765	1635.008
-30.896	27.111	1981.036	1633.395
-29.881	27.141	1978.706	1631.674
-28.867	27.179	1977.575	1631.023
-27.852	27.143	1975.523	1628.946
-26.838	27.166	1973.239	1627.197
-25.823	27.139	1971.867	1625.762
-24.809	27.178	1970.284	1624.742
-23.794	27.141	1968.466	1622.843
-22.779	27.113	1966.488	1620.904
-21.765	27.165	1964.786	1619.903
-20.750	27.123	1963.004	1617.995
-19.736	27.047	1962.473	1616.810
-18.721	27.184	1959.963	1615.901
-17.706	27.147	1958.443	1614.252
-16.692	27.104	1956.773	1612.429
-15.677	27.161	1955.340	1611.687
-14.663	27.164	1953.594	1610.213
-13.648	27.097	1952.389	1608.561
-12.633	27.152	1951.399	1608.172
-11.619	27.165	1950.133	1607.180
-10.604	27.149	1948.693	1605.790
-9.590	27.041	1947.699	1603.954
-8.575	27.086	1946.247	1603.085
-7.560	27.166	1944.464	1602.264
-6.546	27.214	1942.874	1601.314
-5.531	27.185	1942.190	1600.430
-4.517	27.150	1940.769	1598.887
-3.502	27.153	1939.571	1597.863
-2.487	27.104	1938.008	1596.080
-1.473	27.144	1937.650	1596.069
-0.458	27.243	1931.818	1592.071
0.556	24.553	1912.167	1563.527
1.571	20.332	1892.977	1511.036
2.586	16.293	1916.018	1493.635
3.600	15.325	1950.883	1511.958
4.615	15.339	1944.949	1507.350
5.629	12.956	1844.267	1408.863
6.644	7.593	1728.816	1277.515
7.659	4.351	1694.566	1226.512
8.673	4.067	1691.323	1221.811
9.688	4.057	1690.392	1220.951
10.702	4.054	1688.728	1219.616
11.717	3.983	1684.878	1216.171
12.731	4.591	1684.693	1220.709
13.746	8.680	1693.597	1259.276
14.761	13.545	1703.010	1304.562
15.775	15.554	1705.565	1322.230
16.790	15.625	1704.779	1322.061
17.804	15.017	1701.322	1314.489
18.819	14.249	1699.345	1306.824
19.834	13.717	1696.675	1300.483
20.848	13.354	1695.065	1296.291
21.863	13.080	1693.225	1292.626
22.877	12.679	1692.174	1288.564
23.892	12.387	1690.522	1284.911
24.907	12.154	1689.046	1281.857
25.921	12.200	1687.736	1281.108
26.936	12.139	1686.581	1279.645
27.950	12.192	1685.851	1279.389
28.965	12.218	1685.217	1278.993
29.980	12.281	1684.909	1279.138
30.994	12.266	1683.383	1277.750
32.009	12.306	1682.437	1277.233
33.023	12.306	1681.741	1276.588
34.038	12.342	1681.063	1276.241
35.053	12.275	1680.041	1274.832
36.067	12.332	1678.983	1274.357
37.082	12.281	1677.720	1272.894
38.096	12.224	1677.131	1271.892
39.111	12.287	1676.083	1271.474
40.126	12.393	1675.401	1271.665
41.140	12.292	1674.592	1270.151
42.155	12.260	1673.422	1268.910
43.169	12.256	1671.599	1267.385
44.184	12.309	1670.360	1266.737
45.199	12.215	1669.088	1264.937
46.213	12.218	1668.213	1264.187
47.228	12.273	1666.999	1263.579
48.242	12.205	1666.221	1262.354
49.257	12.280	1664.475	1261.494
50.271	12.231	1663.213	1260.054
51.286	12.181	1662.130	1258.737
52.301	12.247	1660.564	1257.948
53.315	12.259	1659.585	1257.184
54.330	12.214	1658.059	1255.569
55.344	12.253	1656.527	1254.595
56.359	12.186	1655.106	1252.901
57.374	12.201	1654.015	1252.075
58.388	12.251	1652.905	1251.508
59.403	12.204	1651.538	1250.003
60.417	12.170	1650.259	1248.663
61.432	12.152	1649.535	1247.869
62.447	12.085	1648.315	1246.326
63.461	12.179	1646.461	1245.531
64.476	12.171	1645.712	1244.793
65.490	12.185	1644.741	1244.051
66.505	12.170	1643.512	1242.901
67.520	12.166	1642.349	1241.879
68.534	12.256	1641.171	1241.562
69.549	12.261	1639.864	1240.502
70.563	12.323	1638.178	1239.580
71.578	12.155	1637.425	1237.637
72.593	12.122	1636.439	1236.532
73.607	12.106	1635.526	1235.615
74.622	12.165	1634.367	1235.073
75.636	12.171	1633.309	1234.210
76.651	12.116	1632.553	1233.116
77.666	12.147	1631.439	1232.399
78.680	12.124	1630.378	1231.315
79.695	12.151	1629.328	1230.616
80.709	12.165	1627.548	1229.265
81.724	12.149	1627.478	1228.983
82.739	12.102	1626.509	1227.792
83.753	12.193	1624.907	1227.154
84.768	12.171	1624.126	1226.288
85.782	12.199	1623.441	1225.874
86.797	12.210	1621.839	1224.639
87.812	12.201	1621.031	1223.857
88.826	12.201	1619.737	1222.768
89.841	12.143	1618.701	1221.448
90.855	12.171	1617.284	1220.477
91.870	12.243	1616.368	1220.210
92.884	12.203	1615.187	1218.915
93.899	12.247	1614.013	1218.250
94.914	12.266	1613.172	1217.644
95.928	12.220	1611.693	1216.080
96.943	12.361	1610.049	1215.781
97.957	12.231	1608.712	1213.703
98.972	12.245	1607.312	1212.643
99.987	12.277	1605.629	1211.497
101.001	12.271	1603.774	1209.946
102.016	12.259	1602.638	1208.898
103.030	12.233	1601.415	1207.674
104.045	12.283	1599.921	1206.808
105.060	12.235	1598.871	1205.555
106.074	12.219	1597.571	1204.357
107.089	12.225	1596.019	1203.118
108.103	12.161	1595.254	1201.968
109.118	12.225	1593.506	1201.011
110.133	12.174	1592.294	1199.623
111.147	12.132	1591.150	1198.346
112.162	12.202	1589.714	1197.667
113.176	12.238	1587.896	1196.459
114.191	12.223	1586.561	1195.232
115.206	12.187	1585.623	1194.161
116.220	12.210	1584.762	1193.573
117.235	12.247	1582.601	1192.109
118.249	12.207	1581.930	1191.209
119.264	12.261	1580.373	1190.321
120.279	12.227	1579.100	1189.012
121.293	12.258	1577.312	1187.786
122.308	12.232	1576.376	1186.787
123.322	12.366	1574.212	1186.017
124.337	12.364	1573.096	1185.059
125.352	12.271	1571.952	1183.423
126.366	12.300	1570.659	1182.553
127.381	12.350	1569.613	1182.021
128.395	12.224	1568.773	1180.375
129.410	12.220	1567.303	1179.135
130.424	12.285	1565.613	1178.232
131.439	12.328	1564.252	1177.408
132.454	12.304	1563.132	1176.290
133.468	12.296	1561.422	1174.839
134.483	12.370	1560.203	1174.352
135.497	12.335	1558.510	1172.724
136.512	12.274	1557.863	1171.698
137.527	12.296	1556.341	1170.607
138.541	12.252	1555.131	1169.280
139.556	12.379	1553.407	1168.784
140.570	12.309	1552.091	1167.188
141.585	12.277	1550.865	1165.935
142.600	12.365	1549.593	1165.502
143.614	12.335	1548.500	1164.368
144.629	12.348	1547.023	1163.243
145.643	12.475	1545.606	1162.974
146.658	12.435	1543.931	1161.326
147.673	12.363	1542.783	1159.852
148.687	12.446	1541.030	1159.015
149.702	12.471	1539.748	1158.128
150.716	12.392	1538.353	1156.415
151.731	12.375	1536.922	1155.120
152.746	12.459	1535.504	1154.542
153.760	12.474	1533.728	1153.214
154.775	12.481	1532.523	1152.250
155.789	12.506	1530.751	1150.990
156.804	12.474	1529.606	1149.805
157.819	12.531	1528.312	1149.130
158.833	12.429	1527.633	1147.808
159.848	12.469	1526.266	1146.955
160.862	12.558	1524.827	1146.392
161.877	12.513	1523.713	1145.140
162.892	12.561	1522.411	1144.392
163.906	12.556	1521.128	1143.296
164.921	12.613	1519.656	1142.485
165.935	12.653	1518.890	1142.085
166.950	12.627	1517.723	1140.922
167.964	12.602	1516.641	1139.835
168.979	12.627	1515.157	1138.792
169.994	12.616	1514.710	1138.279
171.008	12.668	1513.554	1137.672
172.023	12.496	1512.811	1135.823
173.037	12.659	1510.540	1135.143
174.052	12.735	1509.027	1134.429
175.067	12.666	1508.658	1133.579
176.081	12.719	1507.085	1132.657
177.096	12.730	1506.030	1131.840
178.110	12.755	1504.961	1131.112
179.125	12.613	1504.199	1129.460
180.140	12.614	1502.702	1128.244
181.154	12.664	1501.991	1127.952
182.169	12.751	1500.400	1127.252
183.183	12.800	1498.487	1126.050
184.198	12.816	1497.944	1125.652
185.213	12.790	1497.114	1124.750
186.227	12.883	1495.853	1124.340
187.242	12.828	1495.165	1123.349
188.256	12.891	1493.460	1122.401
189.271	12.879	1492.589	1121.561
190.286	12.874	1491.796	1120.830
191.300	12.916	1490.476	1120.026
192.315	12.868	1489.743	1119.052
193.329	12.868	1488.090	1117.714
194.344	12.794	1487.158	1116.414
195.359	12.921	1486.058	1116.348
196.373	12.876	1485.112	1115.231
197.388	12.920	1483.434	1114.167
198.402	12.953	1482.664	1113.715
199.417	12.978	1481.177	1112.671
200.432	13.008	1480.061	1111.933
201.446	12.983	1479.723	1111.414
202.461	13.107	1477.682	1110.619
203.475	12.997	1476.758	1109.084
204.490	13.143	1475.836	1109.273
205.504	13.154	1474.554	1108.284
206.519	13.048	1473.855	1106.950
207.534	13.006	1472.883	1105.841
208.548	13.097	1471.666	1105.438
209.563	13.138	1470.310	1104.597
210.577	13.091	1469.395	1103.500
211.592	13.033	1468.747	1102.531
212.607	13.118	1467.723	1102.229
213.621	13.136	1467.071	1101.758
214.636	13.170	1466.210	1101.245
215.650	13.130	1464.887	1099.885
216.665	13.235	1464.008	1099.826
217.680	13.196	1463.293	1098.936
218.694	13.196	1462.659	1098.362
219.709	13.260	1461.477	1097.803
220.723	13.283	1460.896	1097.421
221.738	13.311	1459.608	1096.543
222.753	13.278	1459.242	1095.950
223.767	13.261	1458.143	1094.915
224.782	13.276	1457.129	1094.155
225.796	13.227	1456.278	1093.096
226.811	13.384	1455.098	1093.151
227.826	13.347	1454.440	1092.316
228.840	13.398	1453.519	1091.866
229.855	13.342	1453.133	1091.110
230.869	13.370	1451.730	1090.146
231.884	13.429	1450.512	1089.522
232.899	13.463	1449.367	1088.788
233.913	13.389	1448.683	1087.692
234.928	13.455	1447.246	1086.947
235.942	13.402	1446.122	1085.658
236.957	13.452	1444.828	1084.922
237.972	13.443	1443.634	1083.873
238.986	13.462	1442.645	1083.159
240.001	13.436	1441.819	1082.268
241.015	13.569	1440.634	1082.153
242.030	13.457	1439.993	1080.844
243.045	13.537	1438.760	1080.345
244.059	13.515	1437.856	1079.431
245.074	13.475	1437.195	1078.578
246.088	13.543	1436.314	1078.261
247.103	13.627	1435.412	1078.033
248.117	13.532	1434.732	1076.812
249.132	13.677	1433.825	1076.977
250.147	13.688	1433.015	1076.348
251.161	13.736	1432.178	1075.933
252.176	13.819	1431.248	1075.674
253.190	13.756	1431.088	1075.056
254.205	13.810	1429.803	1074.341
255.220	13.806	1428.831	1073.494
256.234	13.802	1427.993	1072.741
257.249	13.830	1427.467	1072.434
258.263	13.788	1426.838	1071.589
259.278	13.893	1425.772	1071.376
260.293	13.846	1424.858	1070.288
261.307	13.959	1423.777	1070.109
262.322	13.887	1423.328	1069.215
263.336	13.948	1422.438	1068.848
264.351	13.963	1421.199	1067.913
265.366	14.011	1420.409	1067.536
266.380	14.076	1418.871	1066.702
267.395	14.105	1417.954	1066.108
268.409	13.962	1417.675	1064.881
269.424	14.020	1416.686	1064.419
270.439	13.964	1415.523	1063.092
271.453	14.106	1414.603	1063.217
272.468	14.095	1413.856	1062.492
273.482	14.058	1412.993	1061.510
274.497	14.105	1412.015	1060.984
275.512	14.124	1411.328	1060.491
276.526	14.173	1410.239	1059.892
277.541	14.190	1409.161	1059.098
278.555	14.130	1408.523	1058.145
279.570	14.102	1407.851	1057.363
280.585	14.120	1406.729	1056.542
281.599	14.200	1406.074	1056.467
282.614	14.224	1404.958	1055.688
283.628	14.294	1403.803	1055.169
284.643	14.257	1402.931	1054.186
285.657	14.276	1401.728	1053.308
286.672	14.300	1400.956	1052.786
287.687	14.289	1399.987	1051.899
288.701	14.385	1398.827	1051.536
289.716	14.301	1398.145	1050.404
290.730	14.420	1397.287	1050.412
291.745	14.383	1396.417	1049.434
292.760	14.469	1394.940	1048.773
293.774	14.462	1394.244	1048.115
294.789	14.404	1393.285	1046.934
295.803	14.460	1392.371	1046.504
296.818	14.457	1391.811	1045.973
297.833	14.523	1390.942	1045.644
298.847	14.436	1389.971	1044.277
299.862	14.526	1388.550	1043.679
300.876	14.493	1387.456	1042.560
301.891	14.459	1386.896	1041.830
302.906	14.552	1385.874	1041.553
303.920	14.570	1385.469	1041.268
304.935	14.562	1384.615	1040.483
305.949	14.527	1384.048	1039.750
306.964	14.667	1383.000	1039.739
307.979	14.715	1381.608	1038.904
308.993	14.629	1381.051	1037.857
310.008	14.751	1379.937	1037.686
311.022	14.674	1379.096	1036.481
312.037	14.690	1378.286	1035.884
313.052	14.801	1376.971	1035.489
314.066	14.713	1376.124	1034.217
315.081	14.688	1374.978	1033.108
316.095	14.701	1374.187	1032.505
317.110	14.706	1372.491	1031.166
318.125	14.786	1371.778	1031.036
319.139	14.783	1370.839	1030.222
320.154	14.777	1370.069	1029.515
321.168	14.863	1369.141	1029.255
322.183	14.864	1368.522	1028.703
323.197	14.792	1367.290	1027.246
324.212	14.815	1366.509	1026.709
325.227	14.835	1365.561	1026.026
326.241	14.894	1364.481	1025.487
327.256	14.751	1363.872	1024.062
328.270	14.833	1362.990	1023.808
329.285	14.946	1361.936	1023.618
330.300	14.985	1360.868	1022.965
331.314	15.005	1360.103	1022.419
332.329	14.941	1359.253	1021.301
333.343	14.997	1358.666	1021.110
334.358	14.937	1357.547	1019.817
335.373	14.849	1357.051	1018.814
336.387	15.018	1355.970	1018.944
337.402	14.958	1354.962	1017.733
338.416	15.010	1354.516	1017.622
339.431	15.062	1353.835	1017.334
340.446	15.030	1353.318	1016.666
341.460	15.028	1352.370	1015.851
342.475	15.078	1350.875	1014.941
343.489	15.069	1350.352	1014.401
344.504	15.125	1349.366	1013.910
345.519	15.239	1348.095	1013.556
346.533	15.143	1347.659	1012.559
347.548	15.172	1346.506	1011.776
348.562	15.223	1345.679	1011.375
349.577	15.264	1344.974	1011.004
350.592	15.249	1344.122	1010.178
351.606	15.289	1343.325	1009.732
352.621	15.298	1342.097	1008.776
353.635	15.300	1341.204	1008.024
354.650	15.240	1340.165	1006.794
355.665	15.242	1339.301	1006.070
356.679	15.239	1338.606	1005.443
357.694	15.431	1336.726	1005.089
358.708	15.366	1335.497	1003.690
359.723	15.325	1334.966	1002.954
360.738	15.356	1334.111	1002.408
361.752	15.475	1332.663	1001.943
362.767	15.460	1331.687	1001.029
363.781	15.384	1330.747	999.785
364.796	15.489	1330.381	1000.042
365.810	15.497	1329.745	999.524
366.825	15.512	1328.817	998.829
367.840	15.454	1328.152	997.898
368.854	15.447	1327.441	997.232
369.869	15.480	1326.590	996.700
370.883	15.635	1325.849	996.973
371.898	15.559	1325.424	996.117
372.913	15.580	1324.553	995.501
373.927	15.574	1323.637	994.685
374.942	15.666	1322.473	994.266
375.956	15.646	1322.178	993.842
376.971	15.679	1321.537	993.466
377.986	15.702	1320.605	992.811
379.000	15.663	1320.047	992.073
380.015	15.704	1318.832	991.313
381.029	15.732	1318.232	990.940
382.044	15.733	1317.278	990.144
383.059	15.684	1316.820	989.425
384.073	15.849	1316.097	989.760
385.088	15.916	1315.315	989.479
386.102	15.779	1314.966	988.325
387.117	15.913	1313.645	988.034
388.132	15.869	1312.863	987.100
389.146	15.859	1312.077	986.363
390.161	15.803	1311.851	985.774
391.175	15.967	1310.600	985.707
392.190	15.934	1309.828	984.850
393.205	15.986	1309.182	984.581
394.219	16.027	1308.181	983.977
395.234	15.952	1307.011	982.571
396.248	15.955	1305.538	981.395
397.263	16.083	1304.382	981.187
398.278	16.034	1302.937	979.728
399.292	16.053	1301.813	978.905
400.307	16.014	1301.053	978.019
401.321	15.993	1299.929	976.970
402.336	16.029	1299.025	976.408
403.350	16.024	1298.209	975.681
404.365	16.134	1296.684	975.087
405.380	16.033	1296.406	974.207
406.394	16.137	1295.393	973.961
407.409	16.032	1295.135	973.074
408.423	16.100	1293.992	972.524
409.438	16.188	1293.222	972.364
410.453	16.090	1292.978	971.531
411.467	16.140	1291.997	970.994
412.482	16.148	1291.205	970.358
413.496	16.186	1290.396	969.882
414.511	16.214	1290.065	969.707
415.526	16.301	1288.920	969.263
416.540	16.249	1288.480	968.547
417.555	16.309	1287.534	968.094
418.569	16.423	1286.728	968.059
419.584	16.376	1286.377	967.436
420.599	16.313	1286.120	966.800
421.613	95.872	1359.301	1478.570
422.628	93.797	1369.866	1478.640
